2.50017	0.30431
2.49896	0.30510
2.49776	0.30592
2.49656	0.30663
2.49535	0.30731
2.49415	0.30822
2.49295	0.30931
2.49176	0.31035
2.49056	0.31131
2.48936	0.31218
2.48817	0.31310
2.48698	0.31417
2.48578	0.31521
2.48459	0.31624
2.4834	0.31741
2.48221	0.31865
2.48103	0.31986
2.47984	0.32107
2.47866	0.32230
2.47747	0.32355
2.47629	0.32480
2.47511	0.32596
2.47392	0.32696
2.47275	0.32809
2.47157	0.32960
2.47039	0.33119
2.46921	0.33263
2.46804	0.33404
2.46686	0.33546
2.46569	0.33684
2.46452	0.33818
2.46335	0.33959
2.46218	0.34113
2.46101	0.34272
2.45984	0.34428
2.45868	0.34580
2.45751	0.34731
2.45635	0.34882
2.45518	0.35037
2.45402	0.35196
2.45286	0.35352
2.4517	0.35508
2.45054	0.35677
2.44938	0.35851
2.44823	0.36013
2.44707	0.36168
2.44592	0.36335
2.44476	0.36514
2.44361	0.36693
2.44246	0.36865
2.44131	0.37034
2.44016	0.37202
2.43902	0.37369
2.43787	0.37523
2.43672	0.37669
2.43558	0.37830
2.43443	0.38012
2.43329	0.38196
2.43215	0.38371
2.43101	0.38539
2.42987	0.38703
2.42873	0.38867
2.4276	0.39032
2.42646	0.39196
2.42533	0.39357
2.42419	0.39514
2.42306	0.39668
2.42193	0.39822
2.4208	0.39970
2.41967	0.40117
2.41854	0.40271
2.41741	0.40425
2.41628	0.40572
2.41516	0.40720
2.41403	0.40871
2.41291	0.41020
2.41179	0.41163
2.41067	0.41302
2.40955	0.41440
2.40843	0.41576
2.40731	0.41713
2.40619	0.41850
2.40508	0.41981
2.40396	0.42107
2.40285	0.42234
2.40174	0.42363
2.40062	0.42488
2.39951	0.42607
2.3984	0.42723
2.39729	0.42838
2.39619	0.42952
2.39508	0.43065
2.39397	0.43173
2.39287	0.43277
2.39176	0.43381
2.39066	0.43486
2.38956	0.43586
2.38846	0.43682
2.38736	0.43776
2.38626	0.43868
2.38516	0.43959
2.38407	0.44050
2.38297	0.44142
2.38188	0.44227
2.38078	0.44306
2.37969	0.44382
2.3786	0.44459
2.37751	0.44535
2.37642	0.44612
2.37533	0.44687
2.37424	0.44756
2.37316	0.44818
2.37207	0.44880
2.37099	0.44944
2.3699	0.45004
2.36882	0.45058
2.36774	0.45111
2.36666	0.45165
2.36558	0.45217
2.3645	0.45267
2.36342	0.45313
2.36234	0.45357
2.36127	0.45400
2.36019	0.45440
2.35912	0.45477
2.35805	0.45510
2.35698	0.45542
2.3559	0.45572
2.35483	0.45600
2.35377	0.45627
2.3527	0.45653
2.35163	0.45677
2.35056	0.45701
2.3495	0.45725
2.34844	0.45746
2.34737	0.45765
2.34631	0.45785
2.34525	0.45807
2.34419	0.45826
2.34313	0.45842
2.34207	0.45858
2.34101	0.45871
2.33996	0.45883
2.3389	0.45895
2.33785	0.45905
2.33679	0.45909
2.33574	0.45911
2.33469	0.45916
2.33364	0.45920
2.33259	0.45920
2.33154	0.45916
2.33049	0.45911
2.32945	0.45908
2.3284	0.45908
2.32735	0.45908
2.32631	0.45902
2.32527	0.45888
2.32423	0.45874
2.32318	0.45861
2.32214	0.45848
2.3211	0.45837
2.32007	0.45827
2.31903	0.45815
2.31799	0.45799
2.31696	0.45782
2.31592	0.45767
2.31489	0.45752
2.31385	0.45734
2.31282	0.45715
2.31179	0.45696
2.31076	0.45676
2.30973	0.45655
2.3087	0.45636
2.30768	0.45617
2.30665	0.45600
2.30562	0.45583
2.3046	0.45565
2.30357	0.45547
2.30255	0.45533
2.30153	0.45522
2.30051	0.45511
2.29949	0.45502
2.29847	0.45496
2.29745	0.45492
2.29643	0.45488
2.29542	0.45487
2.2944	0.45489
2.29339	0.45491
2.29237	0.45493
2.29136	0.45494
2.29035	0.45492
2.28934	0.45491
2.28833	0.45493
2.28732	0.45495
2.28631	0.45496
2.2853	0.45499
2.28429	0.45503
2.28329	0.45507
2.28228	0.45512
2.28128	0.45517
2.28028	0.45520
2.27927	0.45523
2.27827	0.45525
2.27727	0.45530
2.27627	0.45539
2.27527	0.45550
2.27427	0.45562
2.27328	0.45575
2.27228	0.45588
2.27129	0.45604
2.27029	0.45624
2.2693	0.45645
2.26831	0.45665
2.26731	0.45687
2.26632	0.45717
2.26533	0.45752
2.26434	0.45791
2.26335	0.45831
2.26237	0.45874
2.26138	0.45919
2.2604	0.45967
2.25941	0.46019
2.25843	0.46074
2.25744	0.46132
2.25646	0.46189
2.25548	0.46246
2.2545	0.46304
2.25352	0.46364
2.25254	0.46427
2.25156	0.46493
2.25058	0.46561
2.24961	0.46628
2.24863	0.46695
2.24766	0.46763
2.24668	0.46832
2.24571	0.46901
2.24474	0.46971
2.24377	0.47041
2.2428	0.47109
2.24183	0.47174
2.24086	0.47242
2.23989	0.47313
2.23892	0.47382
2.23796	0.47451
2.23699	0.47520
2.23603	0.47591
2.23506	0.47662
2.2341	0.47732
2.23314	0.47799
2.23218	0.47867
2.23122	0.47935
2.23026	0.48005
2.2293	0.48078
2.22834	0.48150
2.22738	0.48220
2.22643	0.48288
2.22547	0.48357
2.22452	0.48427
2.22356	0.48498
2.22261	0.48572
2.22166	0.48649
2.22071	0.48727
2.21975	0.48807
2.2188	0.48892
2.21786	0.48981
2.21691	0.49071
2.21596	0.49162
2.21501	0.49259
2.21407	0.49364
2.21312	0.49474
2.21218	0.49587
2.21124	0.49702
2.21029	0.49821
2.20935	0.49945
2.20841	0.50078
2.20747	0.50216
2.20653	0.50352
2.20559	0.50490
2.20465	0.50631
2.20372	0.50776
2.20278	0.50922
2.20185	0.51067
2.20091	0.51209
2.19998	0.51350
2.19904	0.51487
2.19811	0.51625
2.19718	0.51764
2.19625	0.51901
2.19532	0.52032
2.19439	0.52161
2.19346	0.52290
2.19254	0.52416
2.19161	0.52539
2.19068	0.52661
2.18976	0.52781
2.18883	0.52899
2.18791	0.53017
2.18699	0.53134
2.18607	0.53250
2.18514	0.53366
2.18422	0.53481
2.1833	0.53595
2.18238	0.53706
2.18147	0.53813
2.18055	0.53918
2.17963	0.54024
2.17872	0.54132
2.1778	0.54236
2.17689	0.54337
2.17597	0.54436
2.17506	0.54532
2.17415	0.54622
2.17324	0.54710
2.17233	0.54800
2.17142	0.54890
2.17051	0.54974
2.1696	0.55052
2.16869	0.55127
2.16779	0.55200
2.16688	0.55270
2.16598	0.55338
2.16507	0.55406
2.16417	0.55471
2.16327	0.55535
2.16236	0.55599
2.16146	0.55657
2.16056	0.55709
2.15966	0.55760
2.15876	0.55813
2.15786	0.55866
2.15697	0.55914
2.15607	0.55958
2.15517	0.56001
2.15428	0.56043
2.15338	0.56083
2.15249	0.56123
2.1516	0.56159
2.1507	0.56193
2.14981	0.56227
2.14892	0.56259
2.14803	0.56289
2.14714	0.56313
2.14625	0.56337
2.14536	0.56360
2.14448	0.56382
2.14359	0.56401
2.14271	0.56419
2.14182	0.56436
2.14094	0.56453
2.14005	0.56468
2.13917	0.56482
2.13829	0.56495
2.13741	0.56504
2.13653	0.56509
2.13565	0.56512
2.13477	0.56514
2.13389	0.56518
2.13301	0.56520
2.13213	0.56520
2.13126	0.56517
2.13038	0.56516
2.12951	0.56517
2.12863	0.56515
2.12776	0.56508
2.12689	0.56500
2.12601	0.56491
2.12514	0.56477
2.12427	0.56461
2.1234	0.56445
2.12253	0.56432
2.12166	0.56419
2.1208	0.56402
2.11993	0.56382
2.11906	0.56362
2.1182	0.56340
2.11733	0.56320
2.11647	0.56300
2.1156	0.56278
2.11474	0.56251
2.11388	0.56223
2.11302	0.56194
2.11216	0.56166
2.1113	0.56136
2.11044	0.56103
2.10958	0.56070
2.10872	0.56039
2.10786	0.56006
2.10701	0.55969
2.10615	0.55933
2.1053	0.55900
2.10444	0.55866
2.10359	0.55827
2.10274	0.55784
2.10188	0.55743
2.10103	0.55702
2.10018	0.55660
2.09933	0.55618
2.09848	0.55576
2.09763	0.55532
2.09678	0.55489
2.09594	0.55444
2.09509	0.55399
2.09424	0.55352
2.0934	0.55303
2.09255	0.55254
2.09171	0.55207
2.09087	0.55159
2.09002	0.55110
2.08918	0.55060
2.08834	0.55011
2.0875	0.54962
2.08666	0.54912
2.08582	0.54859
2.08498	0.54802
2.08414	0.54747
2.08331	0.54696
2.08247	0.54646
2.08163	0.54596
2.0808	0.54544
2.07996	0.54489
2.07913	0.54431
2.0783	0.54374
2.07746	0.54317
2.07663	0.54261
2.0758	0.54206
2.07497	0.54150
2.07414	0.54093
2.07331	0.54034
2.07248	0.53975
2.07165	0.53914
2.07083	0.53854
2.07	0.53796
2.06917	0.53739
2.06835	0.53678
2.06752	0.53616
2.0667	0.53552
2.06588	0.53487
2.06505	0.53422
2.06423	0.53356
2.06341	0.53291
2.06259	0.53224
2.06177	0.53156
2.06095	0.53090
2.06013	0.53024
2.05931	0.52957
2.05849	0.52886
2.05768	0.52813
2.05686	0.52740
2.05605	0.52666
2.05523	0.52592
2.05442	0.52520
2.0536	0.52447
2.05279	0.52374
2.05198	0.52298
2.05117	0.52222
2.05035	0.52147
2.04954	0.52073
2.04873	0.51995
2.04793	0.51913
2.04712	0.51829
2.04631	0.51747
2.0455	0.51664
2.04469	0.51580
2.04389	0.51496
2.04308	0.51411
2.04228	0.51325
2.04147	0.51236
2.04067	0.51147
2.03987	0.51059
2.03907	0.50969
2.03827	0.50874
2.03746	0.50778
2.03666	0.50684
2.03586	0.50591
2.03507	0.50497
2.03427	0.50399
2.03347	0.50299
2.03267	0.50200
2.03188	0.50101
2.03108	0.50000
2.03028	0.49896
2.02949	0.49793
2.0287	0.49688
2.0279	0.49582
2.02711	0.49477
2.02632	0.49369
2.02553	0.49260
2.02473	0.49150
2.02394	0.49039
2.02316	0.48926
2.02237	0.48812
2.02158	0.48695
2.02079	0.48576
2.02	0.48457
2.01922	0.48338
2.01843	0.48220
2.01764	0.48100
2.01686	0.47978
2.01608	0.47856
2.01529	0.47735
2.01451	0.47614
2.01373	0.47490
2.01294	0.47364
2.01216	0.47238
2.01138	0.47114
2.0106	0.46992
2.00982	0.46867
2.00905	0.46735
2.00827	0.46596
2.00749	0.46457
2.00671	0.46320
2.00594	0.46183
2.00516	0.46046
2.00439	0.45908
2.00361	0.45773
2.00284	0.45638
2.00206	0.45504
2.00129	0.45370
2.00052	0.45237
1.99975	0.45101
1.99898	0.44962
1.99821	0.44821
1.99744	0.44681
1.99667	0.44542
1.9959	0.44400
1.99513	0.44255
1.99436	0.44107
1.9936	0.43962
1.99283	0.43820
1.99207	0.43676
1.9913	0.43528
1.99054	0.43381
1.98977	0.43236
1.98901	0.43093
1.98825	0.42948
1.98748	0.42801
1.98672	0.42655
1.98596	0.42511
1.9852	0.42364
1.98444	0.42216
1.98368	0.42071
1.98292	0.41927
1.98217	0.41783
1.98141	0.41635
1.98065	0.41484
1.9799	0.41337
1.97914	0.41195
1.97838	0.41055
1.97763	0.40913
1.97688	0.40768
1.97612	0.40624
1.97537	0.40481
1.97462	0.40336
1.97387	0.40192
1.97312	0.40049
1.97236	0.39906
1.97161	0.39767
1.97087	0.39633
1.97012	0.39499
1.96937	0.39360
1.96862	0.39218
1.96787	0.39081
1.96713	0.38948
1.96638	0.38814
1.96564	0.38682
1.96489	0.38549
1.96415	0.38411
1.9634	0.38275
1.96266	0.38145
1.96192	0.38023
1.96117	0.37904
1.96043	0.37782
1.95969	0.37657
1.95895	0.37534
1.95821	0.37412
1.95747	0.37290
1.95673	0.37168
1.956	0.37049
1.95526	0.36934
1.95452	0.36817
1.95379	0.36700
1.95305	0.36598
1.95231	0.36507
1.95158	0.36409
1.95085	0.36302
1.95011	0.36193
1.94938	0.36083
1.94865	0.35973
1.94791	0.35873
1.94718	0.35785
1.94645	0.35692
1.94572	0.35580
1.94499	0.35473
1.94426	0.35398
1.94353	0.35338
1.9428	0.35261
1.94208	0.35163
1.94135	0.35061
1.94062	0.34955
1.9399	0.34846
1.93917	0.34768
1.93845	0.34718
1.93772	0.34656
1.937	0.34582
1.93628	0.34535
1.93555	0.34496
1.93483	0.34427
1.93411	0.34352
1.93339	0.34306
1.93267	0.34261
1.93195	0.34197
1.93123	0.34133
1.93051	0.34080
1.92979	0.34016
1.92907	0.33937
1.92835	0.33882
1.92764	0.33861
1.92692	0.33858
1.92621	0.33853
1.92549	0.33800
1.92478	0.33708
1.92406	0.33672
1.92335	0.33701
1.92263	0.33683
1.92192	0.33558
1.92121	0.33383
1.9205	0.33320
1.91979	0.33418
1.91908	0.33522
1.91837	0.33539
1.91766	0.33475
1.91695	0.33389
1.91624	0.33347
1.91553	0.33324
1.91483	0.33246
1.91412	0.33161
1.91341	0.33168
1.91271	0.33201
1.912	0.33182
1.9113	0.33180
1.91059	0.33232
1.90989	0.33279
1.90918	0.33298
1.90848	0.33287
1.90778	0.33226
1.90708	0.33142
1.90638	0.33128
1.90568	0.33239
1.90498	0.33429
1.90428	0.33576
1.90358	0.33676
1.90288	0.33853
1.90218	0.34075
1.90148	0.34238
1.90079	0.34376
1.90009	0.34631
1.89939	0.35036
1.8987	0.35484
1.898	0.35967
1.89731	0.36501
1.89662	0.37049
1.89592	0.37600
1.89523	0.38155
1.89454	0.38733
1.89384	0.39365
1.89315	0.40032
1.89246	0.40743
1.89177	0.41467
1.89108	0.42145
1.89039	0.42894
1.8897	0.43740
1.88902	0.44528
1.88833	0.45223
1.88764	0.45869
1.88695	0.46532
1.88627	0.47218
1.88558	0.47842
1.8849	0.48410
1.88421	0.49061
1.88353	0.49798
1.88284	0.50459
1.88216	0.51030
1.88148	0.51605
1.88079	0.52248
1.88011	0.52914
1.87943	0.53531
1.87875	0.54058
1.87807	0.54491
1.87739	0.54984
1.87671	0.55618
1.87603	0.56231
1.87535	0.56751
1.87467	0.57107
1.874	0.57344
1.87332	0.57820
1.87264	0.58428
1.87197	0.58767
1.87129	0.59067
1.87062	0.59611
1.86994	0.60161
1.86927	0.60492
1.86859	0.60641
1.86792	0.60989
1.86725	0.61669
1.86658	0.62244
1.8659	0.62535
1.86523	0.62661
1.86456	0.62845
1.86389	0.63185
1.86322	0.63544
1.86255	0.63797
1.86188	0.63885
1.86122	0.63799
1.86055	0.63754
1.85988	0.64041
1.85921	0.64500
1.85855	0.64766
1.85788	0.64775
1.85722	0.64751
1.85655	0.64967
1.85589	0.65281
1.85522	0.65383
1.85456	0.65279
1.8539	0.65248
1.85323	0.65487
1.85257	0.65826
1.85191	0.66029
1.85125	0.66062
1.85059	0.66069
1.84993	0.66064
1.84927	0.65889
1.84861	0.65604
1.84795	0.65523
1.84729	0.65790
1.84663	0.66244
1.84598	0.66622
1.84532	0.66803
1.84466	0.66833
1.84401	0.66780
1.84335	0.66613
1.8427	0.66327
1.84204	0.66217
1.84139	0.66396
1.84073	0.66520
1.84008	0.66604
1.83943	0.66769
1.83878	0.66772
1.83812	0.66590
1.83747	0.66494
1.83682	0.66519
1.83617	0.66598
1.83552	0.66765
1.83487	0.66998
1.83422	0.67185
1.83357	0.67213
1.83293	0.67147
1.83228	0.67085
1.83163	0.67010
1.83098	0.66991
1.83034	0.67052
1.82969	0.67075
1.82905	0.67078
1.8284	0.67180
1.82776	0.67249
1.82711	0.67111
1.82647	0.67016
1.82583	0.67233
1.82518	0.67481
1.82454	0.67568
1.8239	0.67534
1.82326	0.67396
1.82262	0.67202
1.82198	0.67042
1.82134	0.66913
1.8207	0.66915
1.82006	0.67149
1.81942	0.67361
1.81878	0.67419
1.81814	0.67441
1.81751	0.67437
1.81687	0.67352
1.81623	0.67243
1.8156	0.67254
1.81496	0.67403
1.81433	0.67504
1.81369	0.67456
1.81306	0.67371
1.81242	0.67357
1.81179	0.67355
1.81116	0.67348
1.81053	0.67418
1.80989	0.67506
1.80926	0.67529
1.80863	0.67515
1.808	0.67489
1.80737	0.67435
1.80674	0.67371
1.80611	0.67374
1.80548	0.67455
1.80485	0.67518
1.80423	0.67518
1.8036	0.67483
1.80297	0.67441
1.80234	0.67411
1.80172	0.67395
1.80109	0.67395
1.80047	0.67428
1.79984	0.67483
1.79922	0.67526
1.79859	0.67538
1.79797	0.67525
1.79735	0.67509
1.79672	0.67505
1.7961	0.67510
1.79548	0.67515
1.79486	0.67519
1.79424	0.67518
1.79362	0.67518
1.793	0.67527
1.79238	0.67537
1.79176	0.67545
1.79114	0.67554
1.79052	0.67565
1.7899	0.67576
1.78928	0.67581
1.78867	0.67586
1.78805	0.67589
1.78743	0.67588
1.78682	0.67592
1.7862	0.67599
1.78559	0.67603
1.78497	0.67610
1.78436	0.67633
1.78374	0.67664
1.78313	0.67686
1.78252	0.67696
1.78191	0.67702
1.78129	0.67714
1.78068	0.67736
1.78007	0.67757
1.77946	0.67773
1.77885	0.67791
1.77824	0.67816
1.77763	0.67839
1.77702	0.67857
1.77641	0.67875
1.7758	0.67901
1.7752	0.67928
1.77459	0.67954
1.77398	0.67980
1.77337	0.68010
1.77277	0.68039
1.77216	0.68068
1.77156	0.68095
1.77095	0.68122
1.77035	0.68151
1.76974	0.68180
1.76914	0.68209
1.76854	0.68240
1.76793	0.68276
1.76733	0.68310
1.76673	0.68334
1.76613	0.68355
1.76552	0.68388
1.76492	0.68430
1.76432	0.68469
1.76372	0.68505
1.76312	0.68540
1.76252	0.68575
1.76193	0.68612
1.76133	0.68651
1.76073	0.68687
1.76013	0.68725
1.75953	0.68766
1.75894	0.68807
1.75834	0.68842
1.75774	0.68875
1.75715	0.68911
1.75655	0.68953
1.75596	0.68995
1.75536	0.69035
1.75477	0.69076
1.75418	0.69116
1.75358	0.69155
1.75299	0.69193
1.7524	0.69232
1.75181	0.69270
1.75121	0.69307
1.75062	0.69346
1.75003	0.69386
1.74944	0.69426
1.74885	0.69464
1.74826	0.69500
1.74767	0.69530
1.74708	0.69562
1.7465	0.69600
1.74591	0.69639
1.74532	0.69673
1.74473	0.69706
1.74415	0.69742
1.74356	0.69778
1.74297	0.69813
1.74239	0.69845
1.7418	0.69874
1.74122	0.69903
1.74063	0.69934
1.74005	0.69969
1.73947	0.70003
1.73888	0.70034
1.7383	0.70062
1.73772	0.70092
1.73713	0.70121
1.73655	0.70149
1.73597	0.70179
1.73539	0.70211
1.73481	0.70242
1.73423	0.70269
1.73365	0.70295
1.73307	0.70320
1.73249	0.70345
1.73191	0.70375
1.73133	0.70402
1.73076	0.70425
1.73018	0.70449
1.7296	0.70477
1.72903	0.70506
1.72845	0.70532
1.72787	0.70558
1.7273	0.70584
1.72672	0.70609
1.72615	0.70632
1.72557	0.70656
1.725	0.70684
1.72443	0.70715
1.72385	0.70743
1.72328	0.70767
1.72271	0.70789
1.72213	0.70812
1.72156	0.70839
1.72099	0.70867
1.72042	0.70893
1.71985	0.70919
1.71928	0.70944
1.71871	0.70965
1.71814	0.70983
1.71757	0.70999
1.717	0.71017
1.71643	0.71037
1.71587	0.71061
1.7153	0.71084
1.71473	0.71104
1.71416	0.71122
1.7136	0.71142
1.71303	0.71163
1.71247	0.71188
1.7119	0.71211
1.71134	0.71232
1.71077	0.71250
1.71021	0.71264
1.70964	0.71278
1.70908	0.71294
1.70852	0.71310
1.70795	0.71328
1.70739	0.71348
1.70683	0.71370
1.70627	0.71392
1.70571	0.71411
1.70515	0.71427
1.70458	0.71439
1.70402	0.71448
1.70346	0.71461
1.70291	0.71477
1.70235	0.71493
1.70179	0.71509
1.70123	0.71526
1.70067	0.71542
1.70011	0.71556
1.69956	0.71571
1.699	0.71585
1.69844	0.71597
1.69789	0.71609
1.69733	0.71621
1.69678	0.71634
1.69622	0.71645
1.69567	0.71658
1.69511	0.71675
1.69456	0.71690
1.694	0.71700
1.69345	0.71709
1.6929	0.71719
1.69235	0.71731
1.69179	0.71747
1.69124	0.71764
1.69069	0.71781
1.69014	0.71797
1.68959	0.71811
1.68904	0.71824
1.68849	0.71840
1.68794	0.71857
1.68739	0.71872
1.68684	0.71884
1.68629	0.71898
1.68574	0.71912
1.6852	0.71923
1.68465	0.71934
1.6841	0.71946
1.68355	0.71958
1.68301	0.71973
1.68246	0.71990
1.68192	0.72006
1.68137	0.72017
1.68083	0.72028
1.68028	0.72040
1.67974	0.72054
1.67919	0.72067
1.67865	0.72080
1.67811	0.72094
1.67756	0.72112
1.67702	0.72132
1.67648	0.72147
1.67594	0.72159
1.67539	0.72170
1.67485	0.72182
1.67431	0.72193
1.67377	0.72202
1.67323	0.72214
1.67269	0.72228
1.67215	0.72244
1.67161	0.72257
1.67108	0.72268
1.67054	0.72279
1.67	0.72290
1.66946	0.72302
1.66892	0.72311
1.66839	0.72319
1.66785	0.72329
1.66731	0.72340
1.66678	0.72351
1.66624	0.72359
1.66571	0.72367
1.66517	0.72374
1.66464	0.72380
1.6641	0.72387
1.66357	0.72395
1.66304	0.72404
1.6625	0.72413
1.66197	0.72422
1.66144	0.72431
1.66091	0.72441
1.66037	0.72450
1.65984	0.72456
1.65931	0.72463
1.65878	0.72470
1.65825	0.72479
1.65772	0.72491
1.65719	0.72498
1.65666	0.72502
1.65613	0.72507
1.6556	0.72516
1.65507	0.72522
1.65455	0.72526
1.65402	0.72528
1.65349	0.72533
1.65296	0.72545
1.65244	0.72559
1.65191	0.72569
1.65138	0.72574
1.65086	0.72580
1.65033	0.72585
1.64981	0.72588
1.64928	0.72594
1.64876	0.72603
1.64823	0.72612
1.64771	0.72616
1.64719	0.72616
1.64666	0.72620
1.64614	0.72627
1.64562	0.72631
1.6451	0.72635
1.64458	0.72643
1.64405	0.72651
1.64353	0.72654
1.64301	0.72656
1.64249	0.72660
1.64197	0.72664
1.64145	0.72667
1.64093	0.72668
1.64041	0.72668
1.63989	0.72669
1.63938	0.72671
1.63886	0.72675
1.63834	0.72681
1.63782	0.72687
1.63731	0.72693
1.63679	0.72699
1.63627	0.72702
1.63576	0.72703
1.63524	0.72705
1.63472	0.72710
1.63421	0.72717
1.63369	0.72721
1.63318	0.72722
1.63267	0.72719
1.63215	0.72716
1.63164	0.72716
1.63112	0.72718
1.63061	0.72720
1.6301	0.72725
1.62959	0.72729
1.62908	0.72730
1.62856	0.72731
1.62805	0.72730
1.62754	0.72726
1.62703	0.72720
1.62652	0.72718
1.62601	0.72721
1.6255	0.72724
1.62499	0.72724
1.62448	0.72725
1.62397	0.72725
1.62346	0.72723
1.62296	0.72720
1.62245	0.72716
1.62194	0.72717
1.62143	0.72719
1.62093	0.72715
1.62042	0.72710
1.61991	0.72707
1.61941	0.72705
1.6189	0.72702
1.6184	0.72700
1.61789	0.72697
1.61739	0.72694
1.61688	0.72691
1.61638	0.72688
1.61588	0.72684
1.61537	0.72679
1.61487	0.72677
1.61437	0.72677
1.61386	0.72677
1.61336	0.72673
1.61286	0.72665
1.61236	0.72657
1.61186	0.72651
1.61136	0.72645
1.61086	0.72635
1.61036	0.72628
1.60986	0.72627
1.60936	0.72626
1.60886	0.72621
1.60836	0.72612
1.60786	0.72602
1.60736	0.72596
1.60686	0.72592
1.60637	0.72583
1.60587	0.72571
1.60537	0.72563
1.60487	0.72559
1.60438	0.72556
1.60388	0.72550
1.60338	0.72542
1.60289	0.72533
1.60239	0.72524
1.6019	0.72514
1.6014	0.72506
1.60091	0.72499
1.60042	0.72489
1.59992	0.72478
1.59943	0.72467
1.59894	0.72456
1.59844	0.72446
1.59795	0.72438
1.59746	0.72427
1.59697	0.72413
1.59647	0.72403
1.59598	0.72395
1.59549	0.72384
1.595	0.72372
1.59451	0.72361
1.59402	0.72347
1.59353	0.72335
1.59304	0.72326
1.59255	0.72316
1.59206	0.72302
1.59157	0.72287
1.59109	0.72274
1.5906	0.72262
1.59011	0.72248
1.58962	0.72232
1.58913	0.72219
1.58865	0.72206
1.58816	0.72192
1.58767	0.72177
1.58719	0.72164
1.5867	0.72148
1.58622	0.72131
1.58573	0.72117
1.58525	0.72105
1.58476	0.72093
1.58428	0.72080
1.5838	0.72064
1.58331	0.72046
1.58283	0.72029
1.58235	0.72009
1.58186	0.71989
1.58138	0.71973
1.5809	0.71958
1.58042	0.71941
1.57993	0.71920
1.57945	0.71900
1.57897	0.71882
1.57849	0.71864
1.57801	0.71845
1.57753	0.71825
1.57705	0.71801
1.57657	0.71779
1.57609	0.71764
1.57561	0.71748
1.57514	0.71728
1.57466	0.71710
1.57418	0.71693
1.5737	0.71674
1.57322	0.71650
1.57275	0.71623
1.57227	0.71600
1.57179	0.71578
1.57132	0.71554
1.57084	0.71530
1.57037	0.71506
1.56989	0.71486
1.56941	0.71472
1.56894	0.71454
1.56847	0.71428
1.56799	0.71402
1.56752	0.71380
1.56704	0.71360
1.56657	0.71335
1.5661	0.71309
1.56562	0.71282
1.56515	0.71256
1.56468	0.71230
1.56421	0.71205
1.56374	0.71179
1.56326	0.71152
1.56279	0.71127
1.56232	0.71104
1.56185	0.71082
1.56138	0.71058
1.56091	0.71029
1.56044	0.70996
1.55997	0.70968
1.5595	0.70944
1.55903	0.70918
1.55857	0.70889
1.5581	0.70860
1.55763	0.70831
1.55716	0.70801
1.55669	0.70771
1.55623	0.70744
1.55576	0.70717
1.55529	0.70687
1.55483	0.70656
1.55436	0.70628
1.55389	0.70600
1.55343	0.70570
1.55296	0.70537
1.5525	0.70502
1.55203	0.70471
1.55157	0.70443
1.55111	0.70417
1.55064	0.70387
1.55018	0.70355
1.54971	0.70324
1.54925	0.70294
1.54879	0.70263
1.54833	0.70231
1.54786	0.70199
1.5474	0.70164
1.54694	0.70127
1.54648	0.70090
1.54602	0.70057
1.54556	0.70027
1.5451	0.69995
1.54464	0.69960
1.54418	0.69926
1.54372	0.69894
1.54326	0.69861
1.5428	0.69823
1.54234	0.69783
1.54188	0.69746
1.54142	0.69710
1.54096	0.69674
1.54051	0.69638
1.54005	0.69606
1.53959	0.69576
1.53914	0.69542
1.53868	0.69502
1.53822	0.69461
1.53777	0.69424
1.53731	0.69389
1.53685	0.69352
1.5364	0.69310
1.53594	0.69268
1.53549	0.69231
1.53503	0.69196
1.53458	0.69160
1.53413	0.69120
1.53367	0.69079
1.53322	0.69039
1.53277	0.69001
1.53231	0.68962
1.53186	0.68923
1.53141	0.68884
1.53096	0.68845
1.5305	0.68805
1.53005	0.68765
1.5296	0.68723
1.52915	0.68681
1.5287	0.68637
1.52825	0.68596
1.5278	0.68556
1.52735	0.68517
1.5269	0.68477
1.52645	0.68436
1.526	0.68395
1.52555	0.68354
1.5251	0.68310
1.52465	0.68267
1.52421	0.68225
1.52376	0.68183
1.52331	0.68143
1.52286	0.68101
1.52242	0.68055
1.52197	0.68009
1.52152	0.67964
1.52108	0.67919
1.52063	0.67874
1.52018	0.67828
1.51974	0.67782
1.51929	0.67741
1.51885	0.67699
1.5184	0.67650
1.51796	0.67599
1.51751	0.67556
1.51707	0.67515
1.51663	0.67466
1.51618	0.67415
1.51574	0.67367
1.5153	0.67321
1.51485	0.67275
1.51441	0.67227
1.51397	0.67181
1.51353	0.67141
1.51309	0.67097
1.51264	0.67045
1.5122	0.66994
1.51176	0.66944
1.51132	0.66893
1.51088	0.66843
1.51044	0.66797
1.51	0.66749
1.50956	0.66699
1.50912	0.66647
1.50868	0.66597
1.50824	0.66551
1.50781	0.66502
1.50737	0.66451
1.50693	0.66400
1.50649	0.66349
1.50605	0.66297
1.50562	0.66244
1.50518	0.66193
1.50474	0.66142
1.50431	0.66090
1.50387	0.66038
1.50343	0.65986
1.503	0.65933
1.50256	0.65880
1.50213	0.65830
1.50169	0.65778
1.50126	0.65724
1.50082	0.65668
1.50039	0.65612
1.49996	0.65561
1.49952	0.65513
1.49909	0.65461
1.49865	0.65406
1.49822	0.65354
1.49779	0.65302
1.49736	0.65246
1.49692	0.65186
1.49649	0.65133
1.49606	0.65086
1.49563	0.65037
1.4952	0.64983
1.49477	0.64931
1.49434	0.64881
1.49391	0.64827
1.49348	0.64769
1.49305	0.64710
1.49262	0.64653
1.49219	0.64594
1.49176	0.64530
1.49133	0.64472
1.4909	0.64422
1.49047	0.64368
1.49004	0.64307
1.48961	0.64255
1.48919	0.64210
1.48876	0.64157
1.48833	0.64095
1.4879	0.64031
1.48748	0.63967
1.48705	0.63900
1.48662	0.63839
1.4862	0.63792
1.48577	0.63746
1.48535	0.63691
1.48492	0.63632
1.4845	0.63577
1.48407	0.63529
1.48365	0.63477
1.48322	0.63414
1.4828	0.63343
1.48237	0.63272
1.48195	0.63212
1.48153	0.63158
1.4811	0.63095
1.48068	0.63025
1.48026	0.62973
1.47984	0.62934
1.47941	0.62892
1.47899	0.62839
1.47857	0.62769
1.47815	0.62692
1.47773	0.62630
1.47731	0.62581
1.47689	0.62534
1.47647	0.62480
1.47605	0.62423
1.47563	0.62373
1.47521	0.62327
1.47479	0.62274
1.47437	0.62211
1.47395	0.62146
1.47353	0.62087
1.47311	0.62021
1.47269	0.61947
1.47227	0.61891
1.47186	0.61849
1.47144	0.61786
1.47102	0.61714
1.4706	0.61667
1.47019	0.61625
1.46977	0.61577
1.46935	0.61545
1.46894	0.61519
1.46852	0.61479
1.4681	0.61429
1.46769	0.61378
1.46727	0.61322
1.46686	0.61271
1.46644	0.61233
1.46603	0.61196
1.46562	0.61153
1.4652	0.61119
1.46479	0.61100
1.46437	0.61075
1.46396	0.61032
1.46355	0.60985
1.46313	0.60960
1.46272	0.60957
1.46231	0.60949
1.4619	0.60931
1.46148	0.60914
1.46107	0.60897
1.46066	0.60880
1.46025	0.60872
1.45984	0.60877
1.45943	0.60880
1.45902	0.60878
1.45861	0.60873
1.4582	0.60866
1.45779	0.60861
1.45738	0.60865
1.45697	0.60868
1.45656	0.60861
1.45615	0.60847
1.45574	0.60832
1.45533	0.60833
1.45492	0.60855
1.45452	0.60877
1.45411	0.60885
1.4537	0.60883
1.45329	0.60875
1.45288	0.60870
1.45248	0.60869
1.45207	0.60870
1.45166	0.60855
1.45126	0.60819
1.45085	0.60795
1.45045	0.60816
1.45004	0.60865
1.44964	0.60905
1.44923	0.60923
1.44883	0.60925
1.44842	0.60926
1.44802	0.60923
1.44761	0.60910
1.44721	0.60897
1.4468	0.60880
1.4464	0.60826
1.446	0.60759
1.44559	0.60770
1.44519	0.60843
1.44479	0.60889
1.44439	0.60899
1.44398	0.60902
1.44358	0.60888
1.44318	0.60864
1.44278	0.60857
1.44238	0.60856
1.44198	0.60837
1.44158	0.60826
1.44117	0.60845
1.44077	0.60865
1.44037	0.60856
1.43997	0.60826
1.43957	0.60814
1.43917	0.60832
1.43878	0.60838
1.43838	0.60802
1.43798	0.60758
1.43758	0.60762
1.43718	0.60800
1.43678	0.60822
1.43638	0.60821
1.43599	0.60820
1.43559	0.60814
1.43519	0.60789
1.43479	0.60748
1.4344	0.60735
1.434	0.60765
1.4336	0.60791
1.43321	0.60768
1.43281	0.60715
1.43242	0.60685
1.43202	0.60687
1.43163	0.60701
1.43123	0.60734
1.43084	0.60775
1.43044	0.60786
1.43005	0.60771
1.42965	0.60756
1.42926	0.60737
1.42886	0.60716
1.42847	0.60713
1.42808	0.60727
1.42768	0.60743
1.42729	0.60757
1.4269	0.60771
1.42651	0.60770
1.42611	0.60747
1.42572	0.60733
1.42533	0.60751
1.42494	0.60765
1.42455	0.60726
1.42415	0.60664
1.42376	0.60651
1.42337	0.60691
1.42298	0.60741
1.42259	0.60783
1.4222	0.60804
1.42181	0.60801
1.42142	0.60787
1.42103	0.60775
1.42064	0.60762
1.42025	0.60733
1.41986	0.60682
1.41948	0.60634
1.41909	0.60652
1.4187	0.60745
1.41831	0.60819
1.41792	0.60835
1.41754	0.60857
1.41715	0.60909
1.41676	0.60958
1.41637	0.60985
1.41599	0.60980
1.4156	0.60943
1.41521	0.60872
1.41483	0.60787
1.41444	0.60771
1.41406	0.60888
1.41367	0.61067
1.41329	0.61191
1.4129	0.61222
1.41252	0.61226
1.41213	0.61285
1.41175	0.61377
1.41136	0.61453
1.41098	0.61516
1.41059	0.61548
1.41021	0.61496
1.40983	0.61402
1.40944	0.61456
1.40906	0.61712
1.40868	0.61977
1.4083	0.62108
1.40791	0.62097
1.40753	0.62065
1.40715	0.62197
1.40677	0.62487
1.40639	0.62759
1.406	0.62896
1.40562	0.62873
1.40524	0.62828
1.40486	0.63010
1.40448	0.63375
1.4041	0.63719
1.40372	0.63993
1.40334	0.64220
1.40296	0.64439
1.40258	0.64643
1.4022	0.64766
1.40182	0.64821
1.40144	0.64878
1.40107	0.64970
1.40069	0.65165
1.40031	0.65495
1.39993	0.65861
1.39955	0.66262
1.39918	0.66689
1.3988	0.67039
1.39842	0.67311
1.39804	0.67551
1.39767	0.67744
1.39729	0.67844
1.39691	0.67872
1.39654	0.68003
1.39616	0.68298
1.39579	0.68564
1.39541	0.68796
1.39504	0.69168
1.39466	0.69650
1.39429	0.70081
1.39391	0.70412
1.39354	0.70641
1.39316	0.70701
1.39279	0.70666
1.39241	0.70895
1.39204	0.71428
1.39167	0.71920
1.39129	0.72250
1.39092	0.72499
1.39055	0.72708
1.39017	0.72910
1.3898	0.73175
1.38943	0.73453
1.38906	0.73598
1.38868	0.73571
1.38831	0.73596
1.38794	0.73969
1.38757	0.74517
1.3872	0.74896
1.38683	0.75070
1.38646	0.75179
1.38609	0.75313
1.38572	0.75431
1.38534	0.75562
1.38497	0.75853
1.38461	0.76199
1.38424	0.76384
1.38387	0.76455
1.3835	0.76411
1.38313	0.76189
1.38276	0.76270
1.38239	0.76957
1.38202	0.77601
1.38165	0.77822
1.38129	0.77683
1.38092	0.77578
1.38055	0.77983
1.38018	0.78634
1.37982	0.79071
1.37945	0.79181
1.37908	0.79126
1.37871	0.79272
1.37835	0.79685
1.37798	0.80016
1.37762	0.80095
1.37725	0.80096
1.37688	0.80258
1.37652	0.80501
1.37615	0.80678
1.37579	0.80820
1.37542	0.80917
1.37506	0.80982
1.37469	0.81135
1.37433	0.81351
1.37397	0.81499
1.3736	0.81570
1.37324	0.81637
1.37287	0.81671
1.37251	0.81639
1.37215	0.81675
1.37178	0.81780
1.37142	0.81800
1.37106	0.81875
1.3707	0.82099
1.37033	0.82263
1.36997	0.82388
1.36961	0.82558
1.36925	0.82580
1.36889	0.82417
1.36853	0.82302
1.36817	0.82310
1.3678	0.82422
1.36744	0.82653
1.36708	0.82893
1.36672	0.83099
1.36636	0.83222
1.366	0.83131
1.36564	0.82914
1.36528	0.82790
1.36492	0.82824
1.36456	0.83119
1.36421	0.83609
1.36385	0.83997
1.36349	0.84130
1.36313	0.83967
1.36277	0.83567
1.36241	0.83267
1.36206	0.83367
1.3617	0.83646
1.36134	0.83847
1.36098	0.84054
1.36063	0.84331
1.36027	0.84446
1.35991	0.84346
1.35956	0.84360
1.3592	0.84570
1.35884	0.84704
1.35849	0.84743
1.35813	0.84782
1.35778	0.84778
1.35742	0.84770
1.35707	0.84913
1.35671	0.85097
1.35636	0.85057
1.356	0.84898
1.35565	0.84884
1.35529	0.84898
1.35494	0.84898
1.35458	0.85079
1.35423	0.85351
1.35388	0.85498
1.35352	0.85519
1.35317	0.85531
1.35282	0.85586
1.35246	0.85661
1.35211	0.85727
1.35176	0.85808
1.35141	0.85917
1.35105	0.85964
1.3507	0.85935
1.35035	0.85983
1.35	0.86139
1.34965	0.86262
1.3493	0.86290
1.34895	0.86273
1.34859	0.86255
1.34824	0.86252
1.34789	0.86312
1.34754	0.86456
1.34719	0.86585
1.34684	0.86645
1.34649	0.86702
1.34614	0.86784
1.34579	0.86854
1.34545	0.86902
1.3451	0.86934
1.34475	0.86967
1.3444	0.87020
1.34405	0.87091
1.3437	0.87161
1.34335	0.87222
1.34301	0.87280
1.34266	0.87342
1.34231	0.87402
1.34196	0.87450
1.34162	0.87492
1.34127	0.87543
1.34092	0.87596
1.34058	0.87647
1.34023	0.87711
1.33988	0.87781
1.33954	0.87845
1.33919	0.87904
1.33884	0.87963
1.3385	0.88024
1.33815	0.88083
1.33781	0.88141
1.33746	0.88202
1.33712	0.88271
1.33677	0.88334
1.33643	0.88378
1.33609	0.88427
1.33574	0.88505
1.3354	0.88581
1.33505	0.88639
1.33471	0.88694
1.33437	0.88755
1.33402	0.88819
1.33368	0.88887
1.33334	0.88956
1.33299	0.89020
1.33265	0.89082
1.33231	0.89148
1.33197	0.89213
1.33162	0.89276
1.33128	0.89342
1.33094	0.89405
1.3306	0.89463
1.33026	0.89522
1.32992	0.89581
1.32958	0.89639
1.32924	0.89701
1.32889	0.89767
1.32855	0.89837
1.32821	0.89910
1.32787	0.89976
1.32753	0.90032
1.32719	0.90086
1.32685	0.90144
1.32651	0.90206
1.32618	0.90271
1.32584	0.90334
1.3255	0.90392
1.32516	0.90449
1.32482	0.90502
1.32448	0.90553
1.32414	0.90612
1.32381	0.90677
1.32347	0.90737
1.32313	0.90792
1.32279	0.90840
1.32246	0.90887
1.32212	0.90937
1.32178	0.90990
1.32144	0.91045
1.32111	0.91099
1.32077	0.91148
1.32043	0.91195
1.3201	0.91246
1.31976	0.91300
1.31943	0.91349
1.31909	0.91396
1.31876	0.91446
1.31842	0.91499
1.31808	0.91552
1.31775	0.91599
1.31742	0.91638
1.31708	0.91677
1.31675	0.91721
1.31641	0.91770
1.31608	0.91814
1.31574	0.91856
1.31541	0.91897
1.31508	0.91938
1.31474	0.91979
1.31441	0.92022
1.31408	0.92062
1.31374	0.92103
1.31341	0.92146
1.31308	0.92186
1.31275	0.92226
1.31241	0.92267
1.31208	0.92305
1.31175	0.92338
1.31142	0.92370
1.31109	0.92404
1.31075	0.92442
1.31042	0.92480
1.31009	0.92514
1.30976	0.92549
1.30943	0.92590
1.3091	0.92629
1.30877	0.92663
1.30844	0.92694
1.30811	0.92726
1.30778	0.92756
1.30745	0.92785
1.30712	0.92821
1.30679	0.92859
1.30646	0.92888
1.30613	0.92911
1.3058	0.92940
1.30547	0.92976
1.30515	0.93010
1.30482	0.93037
1.30449	0.93061
1.30416	0.93083
1.30383	0.93109
1.30351	0.93143
1.30318	0.93180
1.30285	0.93209
1.30252	0.93229
1.3022	0.93253
1.30187	0.93290
1.30154	0.93325
1.30122	0.93348
1.30089	0.93363
1.30056	0.93384
1.30024	0.93414
1.29991	0.93447
1.29959	0.93476
1.29926	0.93497
1.29893	0.93515
1.29861	0.93535
1.29828	0.93552
1.29796	0.93566
1.29763	0.93585
1.29731	0.93609
1.29699	0.93632
1.29666	0.93655
1.29634	0.93683
1.29601	0.93713
1.29569	0.93736
1.29537	0.93755
1.29504	0.93774
1.29472	0.93793
1.29439	0.93810
1.29407	0.93833
1.29375	0.93861
1.29343	0.93889
1.2931	0.93908
1.29278	0.93921
1.29246	0.93935
1.29214	0.93952
1.29182	0.93970
1.29149	0.93987
1.29117	0.94002
1.29085	0.94020
1.29053	0.94046
1.29021	0.94075
1.28989	0.94096
1.28957	0.94108
1.28925	0.94119
1.28893	0.94133
1.2886	0.94151
1.28828	0.94172
1.28796	0.94192
1.28764	0.94210
1.28733	0.94224
1.28701	0.94237
1.28669	0.94255
1.28637	0.94273
1.28605	0.94287
1.28573	0.94305
1.28541	0.94325
1.28509	0.94338
1.28477	0.94349
1.28446	0.94370
1.28414	0.94403
1.28382	0.94434
1.2835	0.94452
1.28318	0.94457
1.28287	0.94457
1.28255	0.94465
1.28223	0.94481
1.28192	0.94500
1.2816	0.94516
1.28128	0.94533
1.28096	0.94549
1.28065	0.94565
1.28033	0.94581
1.28002	0.94603
1.2797	0.94624
1.27938	0.94638
1.27907	0.94645
1.27875	0.94660
1.27844	0.94678
1.27812	0.94689
1.27781	0.94694
1.27749	0.94699
1.27718	0.94710
1.27686	0.94726
1.27655	0.94743
1.27624	0.94758
1.27592	0.94768
1.27561	0.94780
1.27529	0.94799
1.27498	0.94815
1.27467	0.94818
1.27435	0.94818
1.27404	0.94823
1.27373	0.94837
1.27342	0.94860
1.2731	0.94883
1.27279	0.94895
1.27248	0.94903
1.27217	0.94912
1.27185	0.94917
1.27154	0.94929
1.27123	0.94950
1.27092	0.94967
1.27061	0.94977
1.2703	0.94989
1.26998	0.95003
1.26967	0.95010
1.26936	0.95016
1.26905	0.95025
1.26874	0.95030
1.26843	0.95035
1.26812	0.95050
1.26781	0.95068
1.2675	0.95078
1.26719	0.95084
1.26688	0.95087
1.26657	0.95091
1.26626	0.95098
1.26595	0.95104
1.26564	0.95112
1.26534	0.95119
1.26503	0.95128
1.26472	0.95142
1.26441	0.95153
1.2641	0.95163
1.26379	0.95174
1.26349	0.95182
1.26318	0.95190
1.26287	0.95199
1.26256	0.95204
1.26226	0.95205
1.26195	0.95214
1.26164	0.95228
1.26133	0.95235
1.26103	0.95236
1.26072	0.95239
1.26041	0.95244
1.26011	0.95249
1.2598	0.95258
1.2595	0.95273
1.25919	0.95283
1.25888	0.95281
1.25858	0.95279
1.25827	0.95284
1.25797	0.95291
1.25766	0.95294
1.25736	0.95300
1.25705	0.95313
1.25675	0.95333
1.25644	0.95348
1.25614	0.95350
1.25584	0.95348
1.25553	0.95349
1.25523	0.95351
1.25492	0.95347
1.25462	0.95346
1.25432	0.95356
1.25401	0.95365
1.25371	0.95367
1.25341	0.95368
1.2531	0.95370
1.2528	0.95376
1.2525	0.95390
1.2522	0.95401
1.25189	0.95404
1.25159	0.95412
1.25129	0.95425
1.25099	0.95433
1.25069	0.95435
1.25038	0.95435
1.25008	0.95437
1.24978	0.95444
1.24948	0.95453
1.24918	0.95461
1.24888	0.95466
1.24858	0.95462
1.24828	0.95457
1.24798	0.95461
1.24768	0.95469
1.24738	0.95474
1.24708	0.95481
1.24678	0.95492
1.24648	0.95497
1.24618	0.95505
1.24588	0.95520
1.24558	0.95533
1.24528	0.95539
1.24498	0.95543
1.24468	0.95551
1.24438	0.95562
1.24408	0.95567
1.24379	0.95568
1.24349	0.95569
1.24319	0.95576
1.24289	0.95589
1.24259	0.95598
1.2423	0.95603
1.242	0.95608
1.2417	0.95616
1.2414	0.95623
1.24111	0.95628
1.24081	0.95631
1.24051	0.95634
1.24022	0.95642
1.23992	0.95654
1.23962	0.95671
1.23933	0.95690
1.23903	0.95700
1.23874	0.95696
1.23844	0.95690
1.23814	0.95691
1.23785	0.95696
1.23755	0.95702
1.23726	0.95708
1.23696	0.95712
1.23667	0.95714
1.23637	0.95720
1.23608	0.95731
1.23578	0.95743
1.23549	0.95751
1.23519	0.95750
1.2349	0.95742
1.23461	0.95738
1.23431	0.95744
1.23402	0.95751
1.23373	0.95754
1.23343	0.95751
1.23314	0.95746
1.23285	0.95748
1.23255	0.95749
1.23226	0.95745
1.23197	0.95742
1.23167	0.95750
1.23138	0.95768
1.23109	0.95778
1.2308	0.95775
1.2305	0.95770
1.23021	0.95770
1.22992	0.95773
1.22963	0.95777
1.22934	0.95781
1.22905	0.95785
1.22876	0.95786
1.22846	0.95785
1.22817	0.95785
1.22788	0.95787
1.22759	0.95792
1.2273	0.95802
1.22701	0.95814
1.22672	0.95820
1.22643	0.95818
1.22614	0.95812
1.22585	0.95805
1.22556	0.95802
1.22527	0.95801
1.22498	0.95805
1.22469	0.95812
1.2244	0.95818
1.22411	0.95822
1.22382	0.95822
1.22354	0.95817
1.22325	0.95815
1.22296	0.95824
1.22267	0.95835
1.22238	0.95844
1.22209	0.95851
1.22181	0.95849
1.22152	0.95840
1.22123	0.95837
1.22094	0.95841
1.22066	0.95847
1.22037	0.95848
1.22008	0.95836
1.21979	0.95812
1.21951	0.95795
1.21922	0.95791
1.21893	0.95793
1.21865	0.95799
1.21836	0.95810
1.21808	0.95813
1.21779	0.95807
1.2175	0.95807
1.21722	0.95815
1.21693	0.95824
1.21665	0.95825
1.21636	0.95824
1.21608	0.95827
1.21579	0.95825
1.21551	0.95811
1.21522	0.95793
1.21494	0.95784
1.21465	0.95788
1.21437	0.95794
1.21408	0.95793
1.2138	0.95787
1.21351	0.95784
1.21323	0.95784
1.21295	0.95783
1.21266	0.95779
1.21238	0.95773
1.2121	0.95773
1.21181	0.95777
1.21153	0.95782
1.21125	0.95784
1.21096	0.95782
1.21068	0.95775
1.2104	0.95762
1.21012	0.95753
1.20983	0.95752
1.20955	0.95755
1.20927	0.95753
1.20899	0.95741
1.20871	0.95729
1.20842	0.95731
1.20814	0.95735
1.20786	0.95735
1.20758	0.95736
1.2073	0.95731
1.20702	0.95713
1.20674	0.95693
1.20646	0.95685
1.20617	0.95687
1.20589	0.95692
1.20561	0.95694
1.20533	0.95690
1.20505	0.95680
1.20477	0.95672
1.20449	0.95669
1.20421	0.95667
1.20393	0.95662
1.20366	0.95663
1.20338	0.95670
1.2031	0.95674
1.20282	0.95669
1.20254	0.95663
1.20226	0.95661
1.20198	0.95657
1.2017	0.95650
1.20142	0.95638
1.20115	0.95625
1.20087	0.95615
1.20059	0.95613
1.20031	0.95621
1.20003	0.95631
1.19976	0.95633
1.19948	0.95628
1.1992	0.95623
1.19892	0.95621
1.19865	0.95614
1.19837	0.95601
1.19809	0.95596
1.19782	0.95602
1.19754	0.95607
1.19726	0.95608
1.19699	0.95605
1.19671	0.95600
1.19643	0.95600
1.19616	0.95603
1.19588	0.95607
1.19561	0.95608
1.19533	0.95602
1.19506	0.95595
1.19478	0.95593
1.19451	0.95594
1.19423	0.95593
1.19395	0.95589
1.19368	0.95586
1.19341	0.95588
1.19313	0.95599
1.19286	0.95613
1.19258	0.95618
1.19231	0.95614
1.19203	0.95612
1.19176	0.95609
1.19149	0.95600
1.19121	0.95589
1.19094	0.95580
1.19067	0.95579
1.19039	0.95581
1.19012	0.95582
1.18985	0.95587
1.18957	0.95598
1.1893	0.95606
1.18903	0.95609
1.18875	0.95608
1.18848	0.95609
1.18821	0.95617
1.18794	0.95623
1.18767	0.95629
1.18739	0.95640
1.18712	0.95647
1.18685	0.95646
1.18658	0.95645
1.18631	0.95648
1.18604	0.95654
1.18576	0.95659
1.18549	0.95658
1.18522	0.95651
1.18495	0.95653
1.18468	0.95667
1.18441	0.95680
1.18414	0.95681
1.18387	0.95672
1.1836	0.95668
1.18333	0.95669
1.18306	0.95666
1.18279	0.95659
1.18252	0.95657
1.18225	0.95659
1.18198	0.95662
1.18171	0.95675
1.18144	0.95690
1.18117	0.95688
1.1809	0.95679
1.18063	0.95685
1.18037	0.95700
1.1801	0.95710
1.17983	0.95711
1.17956	0.95703
1.17929	0.95695
1.17902	0.95691
1.17876	0.95687
1.17849	0.95685
1.17822	0.95686
1.17795	0.95691
1.17768	0.95705
1.17742	0.95715
1.17715	0.95708
1.17688	0.95694
1.17662	0.95689
1.17635	0.95691
1.17608	0.95692
1.17582	0.95689
1.17555	0.95684
1.17528	0.95676
1.17502	0.95668
1.17475	0.95670
1.17448	0.95678
1.17422	0.95673
1.17395	0.95654
1.17369	0.95645
1.17342	0.95653
1.17316	0.95662
1.17289	0.95658
1.17262	0.95655
1.17236	0.95659
1.17209	0.95661
1.17183	0.95658
1.17156	0.95657
1.1713	0.95659
1.17104	0.95656
1.17077	0.95650
1.17051	0.95649
1.17024	0.95651
1.16998	0.95648
1.16971	0.95634
1.16945	0.95620
1.16919	0.95612
1.16892	0.95608
1.16866	0.95601
1.1684	0.95595
1.16813	0.95592
1.16787	0.95589
1.16761	0.95596
1.16734	0.95612
1.16708	0.95617
1.16682	0.95604
1.16656	0.95589
1.16629	0.95579
1.16603	0.95564
1.16577	0.95546
1.16551	0.95539
1.16525	0.95543
1.16498	0.95552
1.16472	0.95561
1.16446	0.95554
1.1642	0.95529
1.16394	0.95508
1.16368	0.95505
1.16342	0.95513
1.16316	0.95511
1.16289	0.95497
1.16263	0.95479
1.16237	0.95470
1.16211	0.95476
1.16185	0.95482
1.16159	0.95478
1.16133	0.95471
1.16107	0.95463
1.16081	0.95438
1.16055	0.95407
1.16029	0.95399
1.16003	0.95408
1.15977	0.95409
1.15951	0.95399
1.15925	0.95378
1.159	0.95365
1.15874	0.95375
1.15848	0.95382
1.15822	0.95359
1.15796	0.95330
1.1577	0.95323
1.15744	0.95328
1.15719	0.95333
1.15693	0.95338
1.15667	0.95341
1.15641	0.95340
1.15615	0.95331
1.1559	0.95315
1.15564	0.95306
1.15538	0.95307
1.15512	0.95310
1.15487	0.95310
1.15461	0.95310
1.15435	0.95311
1.15409	0.95322
1.15384	0.95342
1.15358	0.95350
1.15332	0.95344
1.15307	0.95325
1.15281	0.95312
1.15256	0.95337
1.1523	0.95383
1.15204	0.95420
1.15179	0.95446
1.15153	0.95461
1.15128	0.95473
1.15102	0.95496
1.15076	0.95538
1.15051	0.95583
1.15025	0.95590
1.15	0.95577
1.14974	0.95617
1.14949	0.95711
1.14923	0.95789
1.14898	0.95841
1.14873	0.95910
1.14847	0.95990
1.14822	0.96046
1.14796	0.96068
1.14771	0.96085
1.14745	0.96128
1.1472	0.96185
1.14695	0.96235
1.14669	0.96306
1.14644	0.96405
1.14619	0.96487
1.14593	0.96541
1.14568	0.96598
1.14543	0.96677
1.14517	0.96763
1.14492	0.96823
1.14467	0.96846
1.14442	0.96887
1.14416	0.96999
1.14391	0.97130
1.14366	0.97227
1.14341	0.97300
1.14315	0.97366
1.1429	0.97435
1.14265	0.97499
1.1424	0.97552
1.14215	0.97612
1.1419	0.97675
1.14164	0.97734
1.14139	0.97791
1.14114	0.97852
1.14089	0.97930
1.14064	0.98029
1.14039	0.98118
1.14014	0.98180
1.13989	0.98236
1.13964	0.98308
1.13939	0.98390
1.13914	0.98459
1.13889	0.98497
1.13864	0.98529
1.13839	0.98592
1.13814	0.98673
1.13789	0.98750
1.13764	0.98831
1.13739	0.98912
1.13714	0.98982
1.13689	0.99032
1.13664	0.99039
1.13639	0.99010
1.13614	0.99025
1.13589	0.99124
1.13564	0.99208
1.13539	0.99191
1.13515	0.99105
1.1349	0.99067
1.13465	0.99168
1.1344	0.99328
1.13415	0.99440
1.1339	0.99505
1.13366	0.99560
1.13341	0.99632
1.13316	0.99718
1.13291	0.99793
1.13267	0.99848
1.13242	0.99898
1.13217	0.99950
1.13192	1.00003
1.13168	1.00057
1.13143	1.00105
1.13118	1.00138
1.13094	1.00160
1.13069	1.00182
1.13044	1.00201
1.1302	1.00204
1.12995	1.00200
1.12971	1.00223
1.12946	1.00279
1.12921	1.00336
1.12897	1.00377
1.12872	1.00409
1.12848	1.00430
1.12823	1.00428
1.12798	1.00435
1.12774	1.00498
1.12749	1.00593
1.12725	1.00674
1.127	1.00723
1.12676	1.00734
1.12651	1.00724
1.12627	1.00713
1.12603	1.00695
1.12578	1.00659
1.12554	1.00666
1.12529	1.00763
1.12505	1.00879
1.1248	1.00945
1.12456	1.00968
1.12432	1.00957
1.12407	1.00909
1.12383	1.00896
1.12359	1.00972
1.12334	1.01036
1.1231	1.01006
1.12286	1.00945
1.12261	1.00941
1.12237	1.00987
1.12213	1.01041
1.12188	1.01098
1.12164	1.01139
1.1214	1.01164
1.12116	1.01191
1.12091	1.01193
1.12067	1.01159
1.12043	1.01151
1.12019	1.01203
1.11995	1.01266
1.1197	1.01287
1.11946	1.01280
1.11922	1.01282
1.11898	1.01302
1.11874	1.01324
1.1185	1.01342
1.11825	1.01363
1.11801	1.01377
1.11777	1.01381
1.11753	1.01390
1.11729	1.01404
1.11705	1.01416
1.11681	1.01427
1.11657	1.01448
1.11633	1.01473
1.11609	1.01491
1.11585	1.01503
1.11561	1.01512
1.11537	1.01519
1.11513	1.01537
1.11489	1.01573
1.11465	1.01604
1.11441	1.01619
1.11417	1.01616
1.11393	1.01607
1.11369	1.01613
1.11345	1.01627
1.11321	1.01631
1.11297	1.01634
1.11274	1.01649
1.1125	1.01674
1.11226	1.01705
1.11202	1.01730
1.11178	1.01733
1.11154	1.01733
1.1113	1.01741
1.11107	1.01740
1.11083	1.01735
1.11059	1.01746
1.11035	1.01769
1.11011	1.01786
1.10988	1.01788
1.10964	1.01788
1.1094	1.01801
1.10916	1.01822
1.10893	1.01831
1.10869	1.01832
1.10845	1.01851
1.10822	1.01883
1.10798	1.01902
1.10774	1.01901
1.10751	1.01901
1.10727	1.01904
1.10703	1.01905
1.1068	1.01905
1.10656	1.01912
1.10633	1.01923
1.10609	1.01933
1.10585	1.01955
1.10562	1.01976
1.10538	1.01970
1.10515	1.01957
1.10491	1.01966
1.10468	1.01984
1.10444	1.01997
1.1042	1.02008
1.10397	1.02015
1.10373	1.02025
1.1035	1.02048
1.10327	1.02078
1.10303	1.02097
1.1028	1.02102
1.10256	1.02109
1.10233	1.02115
1.10209	1.02105
1.10186	1.02093
1.10162	1.02099
1.10139	1.02117
1.10116	1.02124
1.10092	1.02118
1.10069	1.02119
1.10046	1.02141
1.10022	1.02169
1.09999	1.02180
1.09976	1.02184
1.09952	1.02200
1.09929	1.02217
1.09906	1.02221
1.09882	1.02230
1.09859	1.02252
1.09836	1.02267
1.09813	1.02275
1.09789	1.02277
1.09766	1.02269
1.09743	1.02272
1.0972	1.02296
1.09696	1.02305
1.09673	1.02284
1.0965	1.02267
1.09627	1.02276
1.09604	1.02299
1.0958	1.02316
1.09557	1.02331
1.09534	1.02346
1.09511	1.02353
1.09488	1.02352
1.09465	1.02358
1.09442	1.02374
1.09419	1.02385
1.09395	1.02393
1.09372	1.02412
1.09349	1.02430
1.09326	1.02433
1.09303	1.02419
1.0928	1.02411
1.09257	1.02421
1.09234	1.02433
1.09211	1.02440
1.09188	1.02451
1.09165	1.02476
1.09142	1.02504
1.09119	1.02524
1.09096	1.02527
1.09073	1.02515
1.0905	1.02499
1.09027	1.02494
1.09005	1.02498
1.08982	1.02511
1.08959	1.02543
1.08936	1.02572
1.08913	1.02572
1.0889	1.02553
1.08867	1.02546
1.08844	1.02556
1.08822	1.02564
1.08799	1.02564
1.08776	1.02575
1.08753	1.02607
1.0873	1.02633
1.08707	1.02636
1.08685	1.02635
1.08662	1.02636
1.08639	1.02626
1.08616	1.02614
1.08594	1.02616
1.08571	1.02628
1.08548	1.02648
1.08525	1.02676
1.08503	1.02693
1.0848	1.02693
1.08457	1.02686
1.08435	1.02691
1.08412	1.02703
1.08389	1.02698
1.08367	1.02683
1.08344	1.02682
1.08321	1.02698
1.08299	1.02723
1.08276	1.02736
1.08254	1.02729
1.08231	1.02722
1.08208	1.02723
1.08186	1.02725
1.08163	1.02730
1.08141	1.02742
1.08118	1.02756
1.08096	1.02767
1.08073	1.02769
1.08051	1.02762
1.08028	1.02755
1.08006	1.02751
1.07983	1.02753
1.07961	1.02764
1.07938	1.02778
1.07916	1.02780
1.07893	1.02772
1.07871	1.02773
1.07848	1.02784
1.07826	1.02787
1.07803	1.02786
1.07781	1.02791
1.07759	1.02795
1.07736	1.02805
1.07714	1.02830
1.07692	1.02855
1.07669	1.02865
1.07647	1.02859
1.07624	1.02841
1.07602	1.02820
1.0758	1.02807
1.07557	1.02808
1.07535	1.02819
1.07513	1.02826
1.07491	1.02826
1.07468	1.02826
1.07446	1.02830
1.07424	1.02836
1.07402	1.02844
1.07379	1.02855
1.07357	1.02873
1.07335	1.02891
1.07313	1.02886
1.0729	1.02869
1.07268	1.02865
1.07246	1.02876
1.07224	1.02894
1.07202	1.02909
1.0718	1.02914
1.07157	1.02905
1.07135	1.02880
1.07113	1.02867
1.07091	1.02883
1.07069	1.02906
1.07047	1.02914
1.07025	1.02909
1.07003	1.02901
1.06981	1.02899
1.06958	1.02914
1.06936	1.02941
1.06914	1.02954
1.06892	1.02933
1.0687	1.02898
1.06848	1.02886
1.06826	1.02911
1.06804	1.02954
1.06782	1.02979
1.0676	1.02959
1.06738	1.02923
1.06716	1.02906
1.06694	1.02909
1.06672	1.02934
1.0665	1.02968
1.06629	1.02985
1.06607	1.02982
1.06585	1.02969
1.06563	1.02944
1.06541	1.02912
1.06519	1.02907
1.06497	1.02938
1.06475	1.02970
1.06453	1.02983
1.06432	1.02989
1.0641	1.02988
1.06388	1.02976
1.06366	1.02949
1.06344	1.02925
1.06322	1.02916
1.06301	1.02910
1.06279	1.02900
1.06257	1.02903
1.06235	1.02928
1.06214	1.02955
1.06192	1.02954
1.0617	1.02933
1.06148	1.02927
1.06127	1.02929
1.06105	1.02915
1.06083	1.02908
1.06061	1.02932
1.0604	1.02956
1.06018	1.02960
1.05996	1.02960
1.05975	1.02970
1.05953	1.02976
1.05931	1.02955
1.0591	1.02917
1.05888	1.02886
1.05867	1.02884
1.05845	1.02909
1.05823	1.02934
1.05802	1.02946
1.0578	1.02959
1.05759	1.02970
1.05737	1.02961
1.05716	1.02942
1.05694	1.02943
1.05672	1.02954
1.05651	1.02948
1.05629	1.02927
1.05608	1.02909
1.05586	1.02904
1.05565	1.02911
1.05543	1.02927
1.05522	1.02951
1.055	1.02963
1.05479	1.02954
1.05458	1.02950
1.05436	1.02969
1.05415	1.02995
1.05393	1.02990
1.05372	1.02946
1.0535	1.02911
1.05329	1.02914
1.05308	1.02927
1.05286	1.02937
1.05265	1.02950
1.05243	1.02957
1.05222	1.02952
1.05201	1.02940
1.05179	1.02916
1.05158	1.02887
1.05137	1.02877
1.05115	1.02891
1.05094	1.02902
1.05073	1.02900
1.05052	1.02893
1.0503	1.02879
1.05009	1.02874
1.04988	1.02874
1.04967	1.02865
1.04945	1.02878
1.04924	1.02911
1.04903	1.02919
1.04882	1.02896
1.0486	1.02865
1.04839	1.02852
1.04818	1.02866
1.04797	1.02886
1.04776	1.02892
1.04754	1.02908
1.04733	1.02946
1.04712	1.02972
1.04691	1.02961
1.0467	1.02920
1.04649	1.02882
1.04628	1.02866
1.04607	1.02857
1.04585	1.02852
1.04564	1.02868
1.04543	1.02890
1.04522	1.02881
1.04501	1.02849
1.0448	1.02834
1.04459	1.02837
1.04438	1.02843
1.04417	1.02847
1.04396	1.02847
1.04375	1.02842
1.04354	1.02835
1.04333	1.02825
1.04312	1.02819
1.04291	1.02830
1.0427	1.02840
1.04249	1.02820
1.04228	1.02790
1.04207	1.02781
1.04186	1.02786
1.04165	1.02789
1.04144	1.02793
1.04123	1.02796
1.04103	1.02799
1.04082	1.02794
1.04061	1.02794
1.0404	1.02808
1.04019	1.02810
1.03998	1.02786
1.03977	1.02761
1.03956	1.02751
1.03936	1.02768
1.03915	1.02801
1.03894	1.02815
1.03873	1.02798
1.03852	1.02771
1.03832	1.02755
1.03811	1.02744
1.0379	1.02735
1.03769	1.02743
1.03748	1.02759
1.03728	1.02766
1.03707	1.02770
1.03686	1.02771
1.03665	1.02762
1.03645	1.02751
1.03624	1.02742
1.03603	1.02729
1.03583	1.02702
1.03562	1.02661
1.03541	1.02644
1.03521	1.02658
1.035	1.02679
1.03479	1.02693
1.03459	1.02694
1.03438	1.02686
1.03417	1.02683
1.03397	1.02677
1.03376	1.02655
1.03356	1.02640
1.03335	1.02638
1.03314	1.02638
1.03294	1.02647
1.03273	1.02648
1.03253	1.02626
1.03232	1.02617
1.03212	1.02641
1.03191	1.02664
1.0317	1.02653
1.0315	1.02627
1.03129	1.02614
1.03109	1.02603
1.03088	1.02592
1.03068	1.02587
1.03047	1.02581
1.03027	1.02579
1.03006	1.02593
1.02986	1.02620
1.02966	1.02637
1.02945	1.02621
1.02925	1.02579
1.02904	1.02550
1.02884	1.02542
1.02863	1.02544
1.02843	1.02550
1.02823	1.02556
1.02802	1.02564
1.02782	1.02573
1.02762	1.02567
1.02741	1.02533
1.02721	1.02489
1.027	1.02478
1.0268	1.02499
1.0266	1.02500
1.02639	1.02466
1.02619	1.02448
1.02599	1.02473
1.02579	1.02501
1.02558	1.02498
1.02538	1.02475
1.02518	1.02453
1.02497	1.02431
1.02477	1.02404
1.02457	1.02389
1.02437	1.02389
1.02416	1.02392
1.02396	1.02389
1.02376	1.02379
1.02356	1.02383
1.02336	1.02405
1.02315	1.02414
1.02295	1.02400
1.02275	1.02384
1.02255	1.02374
1.02235	1.02374
1.02215	1.02373
1.02194	1.02363
1.02174	1.02349
1.02154	1.02330
1.02134	1.02317
1.02114	1.02324
1.02094	1.02339
1.02074	1.02334
1.02054	1.02320
1.02034	1.02311
1.02014	1.02278
1.01993	1.02228
1.01973	1.02211
1.01953	1.02229
1.01933	1.02249
1.01913	1.02262
1.01893	1.02281
1.01873	1.02295
1.01853	1.02278
1.01833	1.02247
1.01813	1.02236
1.01793	1.02224
1.01773	1.02200
1.01753	1.02184
1.01733	1.02181
1.01713	1.02181
1.01693	1.02188
1.01673	1.02193
1.01654	1.02183
1.01634	1.02156
1.01614	1.02125
1.01594	1.02115
1.01574	1.02133
1.01554	1.02149
1.01534	1.02144
1.01514	1.02149
1.01494	1.02173
1.01474	1.02177
1.01455	1.02152
1.01435	1.02131
1.01415	1.02130
1.01395	1.02139
1.01375	1.02132
1.01355	1.02117
1.01336	1.02117
1.01316	1.02123
1.01296	1.02106
1.01276	1.02073
1.01257	1.02050
1.01237	1.02048
1.01217	1.02070
1.01197	1.02088
1.01177	1.02064
1.01158	1.02012
1.01138	1.01979
1.01118	1.01971
1.01099	1.01967
1.01079	1.01964
1.01059	1.01973
1.01039	1.01984
1.0102	1.01980
1.01	1.01976
1.0098	1.01978
1.00961	1.01967
1.00941	1.01952
1.00921	1.01959
1.00902	1.01962
1.00882	1.01937
1.00863	1.01922
1.00843	1.01945
1.00823	1.01971
1.00804	1.01952
1.00784	1.01909
1.00765	1.01901
1.00745	1.01919
1.00725	1.01907
1.00706	1.01855
1.00686	1.01815
1.00667	1.01816
1.00647	1.01832
1.00628	1.01832
1.00608	1.01828
1.00589	1.01836
1.00569	1.01849
1.0055	1.01869
1.0053	1.01887
1.00511	1.01883
1.00491	1.01850
1.00472	1.01815
1.00452	1.01816
1.00433	1.01832
1.00413	1.01817
1.00394	1.01796
1.00374	1.01804
1.00355	1.01818
1.00336	1.01803
1.00316	1.01778
1.00297	1.01771
1.00277	1.01765
1.00258	1.01747
1.00239	1.01728
1.00219	1.01715
1.002	1.01714
1.00181	1.01713
1.00161	1.01711
1.00142	1.01727
1.00123	1.01743
1.00103	1.01740
1.00084	1.01725
1.00065	1.01699
1.00045	1.01679
1.00026	1.01690
1.00007	1.01715
0.99987	1.01739
0.99968	1.01751
0.99949	1.01714
0.9993	1.01649
0.9991	1.01624
0.99891	1.01634
0.99872	1.01628
0.99853	1.01612
0.99833	1.01620
0.99814	1.01639
0.99795	1.01652
0.99776	1.01652
0.99757	1.01627
0.99737	1.01590
0.99718	1.01548
0.99699	1.01501
0.9968	1.01490
0.99661	1.01528
0.99642	1.01564
0.99622	1.01559
0.99603	1.01526
0.99584	1.01497
0.99565	1.01480
0.99546	1.01485
0.99527	1.01517
0.99508	1.01527
0.99489	1.01493
0.9947	1.01470
0.9945	1.01490
0.99431	1.01503
0.99412	1.01478
0.99393	1.01456
0.99374	1.01463
0.99355	1.01460
0.99336	1.01427
0.99317	1.01412
0.99298	1.01436
0.99279	1.01460
0.9926	1.01471
0.99241	1.01464
0.99222	1.01437
0.99203	1.01436
0.99184	1.01462
0.99165	1.01450
0.99146	1.01397
0.99127	1.01369
0.99108	1.01383
0.99089	1.01408
0.9907	1.01434
0.99052	1.01447
0.99033	1.01418
0.99014	1.01376
0.98995	1.01377
0.98976	1.01389
0.98957	1.01355
0.98938	1.01319
0.98919	1.01311
0.989	1.01305
0.98882	1.01281
0.98863	1.01260
0.98844	1.01274
0.98825	1.01294
0.98806	1.01283
0.98787	1.01271
0.98769	1.01278
0.9875	1.01274
0.98731	1.01257
0.98712	1.01260
0.98693	1.01272
0.98675	1.01252
0.98656	1.01207
0.98637	1.01170
0.98618	1.01167
0.98599	1.01179
0.98581	1.01198
0.98562	1.01238
0.98543	1.01244
0.98525	1.01192
0.98506	1.01156
0.98487	1.01158
0.98468	1.01159
0.9845	1.01165
0.98431	1.01185
0.98412	1.01186
0.98394	1.01172
0.98375	1.01157
0.98356	1.01136
0.98338	1.01129
0.98319	1.01142
0.983	1.01130
0.98282	1.01096
0.98263	1.01085
0.98245	1.01103
0.98226	1.01126
0.98207	1.01135
0.98189	1.01112
0.9817	1.01083
0.98152	1.01090
0.98133	1.01100
0.98114	1.01080
0.98096	1.01055
0.98077	1.01047
0.98059	1.01063
0.9804	1.01087
0.98022	1.01087
0.98003	1.01061
0.97985	1.01040
0.97966	1.01045
0.97948	1.01064
0.97929	1.01078
0.97911	1.01077
0.97892	1.01076
0.97874	1.01074
0.97855	1.01037
0.97837	1.00973
0.97818	1.00959
0.978	1.01004
0.97781	1.01043
0.97763	1.01051
0.97745	1.01033
0.97726	1.00999
0.97708	1.00992
0.97689	1.01015
0.97671	1.01010
0.97652	1.00978
0.97634	1.00984
0.97616	1.01024
0.97597	1.01041
0.97579	1.01006
0.97561	1.00936
0.97542	1.00868
0.97524	1.00842
0.97506	1.00865
0.97487	1.00905
0.97469	1.00926
0.97451	1.00930
0.97432	1.00938
0.97414	1.00949
0.97396	1.00955
0.97377	1.00977
0.97359	1.01021
0.97341	1.01033
0.97323	1.00985
0.97304	1.00931
0.97286	1.00923
0.97268	1.00931
0.9725	1.00938
0.97231	1.00968
0.97213	1.00987
0.97195	1.00959
0.97177	1.00936
0.97158	1.00959
0.9714	1.00994
0.97122	1.00990
0.97104	1.00963
0.97086	1.00953
0.97068	1.00955
0.97049	1.00935
0.97031	1.00897
0.97013	1.00873
0.96995	1.00879
0.96977	1.00908
0.96959	1.00929
0.9694	1.00918
0.96922	1.00899
0.96904	1.00888
0.96886	1.00883
0.96868	1.00894
0.9685	1.00900
0.96832	1.00879
0.96814	1.00865
0.96796	1.00868
0.96778	1.00865
0.9676	1.00861
0.96742	1.00853
0.96723	1.00825
0.96705	1.00822
0.96687	1.00859
0.96669	1.00873
0.96651	1.00857
0.96633	1.00846
0.96615	1.00835
0.96597	1.00802
0.96579	1.00774
0.96561	1.00786
0.96543	1.00811
0.96525	1.00803
0.96507	1.00757
0.9649	1.00713
0.96472	1.00705
0.96454	1.00718
0.96436	1.00734
0.96418	1.00758
0.964	1.00783
0.96382	1.00797
0.96364	1.00805
0.96346	1.00802
0.96328	1.00779
0.9631	1.00743
0.96292	1.00710
0.96275	1.00698
0.96257	1.00705
0.96239	1.00727
0.96221	1.00764
0.96203	1.00801
0.96185	1.00813
0.96167	1.00798
0.9615	1.00783
0.96132	1.00783
0.96114	1.00802
0.96096	1.00839
0.96078	1.00876
0.96061	1.00890
0.96043	1.00892
0.96025	1.00913
0.96007	1.00941
0.95989	1.00916
0.95972	1.00860
0.95954	1.00857
0.95936	1.00892
0.95918	1.00901
0.95901	1.00902
0.95883	1.00911
0.95865	1.00918
0.95847	1.00958
0.9583	1.01033
0.95812	1.01073
0.95794	1.01042
0.95777	1.00996
0.95759	1.00971
0.95741	1.00962
0.95724	1.00976
0.95706	1.01004
0.95688	1.01036
0.95671	1.01083
0.95653	1.01135
0.95635	1.01182
0.95618	1.01215
0.956	1.01226
0.95582	1.01202
0.95565	1.01144
0.95547	1.01126
0.9553	1.01186
0.95512	1.01275
0.95494	1.01340
0.95477	1.01376
0.95459	1.01428
0.95442	1.01499
0.95424	1.01545
0.95407	1.01577
0.95389	1.01631
0.95371	1.01673
0.95354	1.01655
0.95336	1.01611
0.95319	1.01618
0.95301	1.01709
0.95284	1.01827
0.95266	1.01858
0.95249	1.01821
0.95231	1.01819
0.95214	1.01857
0.95196	1.01915
0.95179	1.01977
0.95161	1.02042
0.95144	1.02118
0.95127	1.02151
0.95109	1.02128
0.95092	1.02114
0.95074	1.02117
0.95057	1.02127
0.95039	1.02162
0.95022	1.02197
0.95005	1.02227
0.94987	1.02272
0.9497	1.02333
0.94952	1.02398
0.94935	1.02399
0.94918	1.02342
0.949	1.02328
0.94883	1.02348
0.94865	1.02339
0.94848	1.02350
0.94831	1.02416
0.94813	1.02462
0.94796	1.02482
0.94779	1.02544
0.94761	1.02594
0.94744	1.02587
0.94727	1.02608
0.9471	1.02651
0.94692	1.02634
0.94675	1.02584
0.94658	1.02590
0.9464	1.02653
0.94623	1.02680
0.94606	1.02631
0.94589	1.02601
0.94571	1.02680
0.94554	1.02803
0.94537	1.02873
0.9452	1.02882
0.94502	1.02856
0.94485	1.02813
0.94468	1.02790
0.94451	1.02789
0.94434	1.02779
0.94416	1.02784
0.94399	1.02859
0.94382	1.02987
0.94365	1.03067
0.94348	1.03052
0.9433	1.03019
0.94313	1.03052
0.94296	1.03133
0.94279	1.03185
0.94262	1.03210
0.94245	1.03252
0.94228	1.03277
0.94211	1.03267
0.94193	1.03260
0.94176	1.03263
0.94159	1.03268
0.94142	1.03300
0.94125	1.03359
0.94108	1.03395
0.94091	1.03395
0.94074	1.03384
0.94057	1.03363
0.9404	1.03337
0.94023	1.03336
0.94006	1.03390
0.93989	1.03476
0.93971	1.03512
0.93954	1.03477
0.93937	1.03438
0.9392	1.03448
0.93903	1.03526
0.93886	1.03657
0.93869	1.03728
0.93852	1.03672
0.93835	1.03568
0.93818	1.03510
0.93801	1.03501
0.93785	1.03498
0.93768	1.03488
0.93751	1.03502
0.93734	1.03567
0.93717	1.03657
0.937	1.03718
0.93683	1.03758
0.93666	1.03792
0.93649	1.03773
0.93632	1.03691
0.93615	1.03624
0.93598	1.03607
0.93581	1.03634
0.93565	1.03721
0.93548	1.03799
0.93531	1.03804
0.93514	1.03778
0.93497	1.03757
0.9348	1.03738
0.93463	1.03744
0.93446	1.03806
0.9343	1.03900
0.93413	1.03958
0.93396	1.03957
0.93379	1.03911
0.93362	1.03866
0.93346	1.03862
0.93329	1.03886
0.93312	1.03922
0.93295	1.03925
0.93278	1.03878
0.93262	1.03867
0.93245	1.03887
0.93228	1.03886
0.93211	1.03886
0.93195	1.03910
0.93178	1.03975
0.93161	1.04054
0.93144	1.04072
0.93128	1.04055
0.93111	1.04105
0.93094	1.04201
0.93077	1.04259
0.93061	1.04280
0.93044	1.04278
0.93027	1.04268
0.93011	1.04279
0.92994	1.04279
0.92977	1.04248
0.92961	1.04259
0.92944	1.04307
0.92927	1.04323
0.92911	1.04329
0.92894	1.04327
0.92877	1.04302
0.92861	1.04314
0.92844	1.04358
0.92828	1.04376
0.92811	1.04360
0.92794	1.04335
0.92778	1.04341
0.92761	1.04379
0.92745	1.04399
0.92728	1.04378
0.92711	1.04345
0.92695	1.04341
0.92678	1.04389
0.92662	1.04441
0.92645	1.04430
0.92629	1.04419
0.92612	1.04452
0.92595	1.04472
0.92579	1.04477
0.92562	1.04489
0.92546	1.04480
0.92529	1.04440
0.92513	1.04410
0.92496	1.04420
0.9248	1.04462
0.92463	1.04540
0.92447	1.04643
0.9243	1.04723
0.92414	1.04753
0.92397	1.04748
0.92381	1.04759
0.92365	1.04767
0.92348	1.04696
0.92332	1.04584
0.92315	1.04531
0.92299	1.04524
0.92282	1.04512
0.92266	1.04520
0.9225	1.04589
0.92233	1.04668
0.92217	1.04682
0.922	1.04645
0.92184	1.04579
0.92168	1.04528
0.92151	1.04599
0.92135	1.04766
0.92118	1.04857
0.92102	1.04815
0.92086	1.04752
0.92069	1.04749
0.92053	1.04801
0.92037	1.04881
0.9202	1.04928
0.92004	1.04899
0.91988	1.04809
0.91971	1.04735
0.91955	1.04745
0.91939	1.04813
0.91922	1.04897
0.91906	1.04952
0.9189	1.04901
0.91874	1.04785
0.91857	1.04711
0.91841	1.04725
0.91825	1.04790
0.91809	1.04815
0.91792	1.04832
0.91776	1.04921
0.9176	1.04972
0.91744	1.04881
0.91727	1.04737
0.91711	1.04677
0.91695	1.04756
0.91679	1.04906
0.91662	1.04988
0.91646	1.04928
0.9163	1.04825
0.91614	1.04839
0.91598	1.04997
0.91582	1.05189
0.91565	1.05229
0.91549	1.05082
0.91533	1.04920
0.91517	1.04823
0.91501	1.04788
0.91485	1.04853
0.91468	1.04951
0.91452	1.04971
0.91436	1.04923
0.9142	1.04855
0.91404	1.04777
0.91388	1.04768
0.91372	1.04866
0.91356	1.04970
0.9134	1.05040
0.91323	1.05054
0.91307	1.04960
0.91291	1.04855
0.91275	1.04830
0.91259	1.04821
0.91243	1.04811
0.91227	1.04840
0.91211	1.04890
0.91195	1.04953
0.91179	1.05011
0.91163	1.05022
0.91147	1.05027
0.91131	1.05076
0.91115	1.05138
0.91099	1.05127
0.91083	1.05007
0.91067	1.04890
0.91051	1.04900
0.91035	1.05025
0.91019	1.05153
0.91003	1.05185
0.90987	1.05138
0.90971	1.05065
0.90955	1.05003
0.90939	1.04950
0.90923	1.04880
0.90907	1.04830
0.90891	1.04837
0.90875	1.04870
0.90859	1.04891
0.90843	1.04898
0.90828	1.04903
0.90812	1.04920
0.90796	1.04958
0.9078	1.04958
0.90764	1.04891
0.90748	1.04849
0.90732	1.04899
0.90716	1.05004
0.907	1.05061
0.90685	1.05017
0.90669	1.04966
0.90653	1.04995
0.90637	1.05021
0.90621	1.04987
0.90605	1.04954
0.9059	1.04962
0.90574	1.05048
0.90558	1.05162
0.90542	1.05163
0.90526	1.05068
0.9051	1.04978
0.90495	1.04930
0.90479	1.04967
0.90463	1.05052
0.90447	1.05110
0.90432	1.05125
0.90416	1.05108
0.904	1.05114
0.90384	1.05157
0.90369	1.05166
0.90353	1.05132
0.90337	1.05117
0.90321	1.05121
0.90306	1.05046
0.9029	1.04913
0.90274	1.04860
0.90258	1.04915
0.90243	1.05043
0.90227	1.05142
0.90211	1.05091
0.90196	1.04983
0.9018	1.04981
0.90164	1.05036
0.90149	1.05043
0.90133	1.05031
0.90117	1.05049
0.90102	1.05093
0.90086	1.05139
0.9007	1.05131
0.90055	1.05064
0.90039	1.04997
0.90023	1.05000
0.90008	1.05046
0.89992	1.05039
0.89977	1.04972
0.89961	1.04921
0.89945	1.04911
0.8993	1.04875
0.89914	1.04805
0.89899	1.04760
0.89883	1.04771
0.89867	1.04824
0.89852	1.04871
0.89836	1.04891
0.89821	1.04924
0.89805	1.04978
0.8979	1.04980
0.89774	1.04934
0.89758	1.04913
0.89743	1.04883
0.89727	1.04816
0.89712	1.04792
0.89696	1.04811
0.89681	1.04853
0.89665	1.04966
0.8965	1.05060
0.89634	1.04987
0.89619	1.04855
0.89603	1.04828
0.89588	1.04870
0.89572	1.04904
0.89557	1.04923
0.89541	1.04909
0.89526	1.04868
0.89511	1.04870
0.89495	1.04917
0.8948	1.04941
0.89464	1.04957
0.89449	1.05018
0.89433	1.05083
0.89418	1.05095
0.89403	1.05071
0.89387	1.05030
0.89372	1.04963
0.89356	1.04881
0.89341	1.04869
0.89326	1.04942
0.8931	1.05011
0.89295	1.05070
0.89279	1.05145
0.89264	1.05243
0.89249	1.05324
0.89233	1.05315
0.89218	1.05228
0.89203	1.05111
0.89187	1.05017
0.89172	1.04956
0.89157	1.04888
0.89141	1.04903
0.89126	1.05073
0.89111	1.05245
0.89095	1.05297
0.8908	1.05291
0.89065	1.05243
0.89049	1.05157
0.89034	1.05113
0.89019	1.05121
0.89004	1.05155
0.88988	1.05151
0.88973	1.05043
0.88958	1.04947
0.88942	1.05033
0.88927	1.05213
0.88912	1.05263
0.88897	1.05187
0.88881	1.05134
0.88866	1.05168
0.88851	1.05240
0.88836	1.05249
0.88821	1.05185
0.88805	1.05114
0.8879	1.05094
0.88775	1.05167
0.8876	1.05270
0.88745	1.05214
0.88729	1.05027
0.88714	1.04951
0.88699	1.04991
0.88684	1.05011
0.88669	1.05033
0.88654	1.05146
0.88638	1.05285
0.88623	1.05328
0.88608	1.05331
0.88593	1.05331
0.88578	1.05291
0.88563	1.05234
0.88548	1.05155
0.88532	1.05059
0.88517	1.05011
0.88502	1.05033
0.88487	1.05081
0.88472	1.05098
0.88457	1.05091
0.88442	1.05125
0.88427	1.05205
0.88412	1.05236
0.88397	1.05191
0.88382	1.05168
0.88367	1.05219
0.88351	1.05253
0.88336	1.05180
0.88321	1.05092
0.88306	1.05116
0.88291	1.05201
0.88276	1.05234
0.88261	1.05233
0.88246	1.05222
0.88231	1.05129
0.88216	1.04978
0.88201	1.04911
0.88186	1.04999
0.88171	1.05144
0.88156	1.05209
0.88141	1.05200
0.88126	1.05150
0.88111	1.05036
0.88096	1.04888
0.88081	1.04790
0.88066	1.04811
0.88051	1.04949
0.88036	1.05123
0.88021	1.05232
0.88007	1.05233
0.87992	1.05128
0.87977	1.05006
0.87962	1.04996
0.87947	1.05053
0.87932	1.05116
0.87917	1.05192
0.87902	1.05241
0.87887	1.05252
0.87872	1.05194
0.87857	1.05086
0.87843	1.05072
0.87828	1.05143
0.87813	1.05193
0.87798	1.05222
0.87783	1.05229
0.87768	1.05167
0.87753	1.05063
0.87739	1.05007
0.87724	1.04961
0.87709	1.04873
0.87694	1.04818
0.87679	1.04876
0.87664	1.04997
0.8765	1.05024
0.87635	1.04980
0.8762	1.04974
0.87605	1.04955
0.8759	1.04913
0.87576	1.04915
0.87561	1.04954
0.87546	1.04972
0.87531	1.04919
0.87516	1.04852
0.87502	1.04890
0.87487	1.05004
0.87472	1.05108
0.87457	1.05167
0.87443	1.05126
0.87428	1.05037
0.87413	1.05081
0.87398	1.05219
0.87384	1.05212
0.87369	1.05069
0.87354	1.04967
0.8734	1.04944
0.87325	1.04999
0.8731	1.05082
0.87295	1.05079
0.87281	1.05006
0.87266	1.04936
0.87251	1.04900
0.87237	1.04939
0.87222	1.05052
0.87207	1.05145
0.87193	1.05157
0.87178	1.05127
0.87163	1.05072
0.87149	1.05015
0.87134	1.05001
0.87119	1.05009
0.87105	1.05040
0.8709	1.05136
0.87076	1.05231
0.87061	1.05191
0.87046	1.05073
0.87032	1.04999
0.87017	1.04986
0.87002	1.05048
0.86988	1.05070
0.86973	1.04965
0.86959	1.04979
0.86944	1.05140
0.8693	1.05097
0.86915	1.04874
0.869	1.04819
0.86886	1.04953
0.86871	1.05067
0.86857	1.05090
0.86842	1.05032
0.86828	1.04948
0.86813	1.04933
0.86799	1.04911
0.86784	1.04851
0.8677	1.04932
0.86755	1.05117
0.8674	1.05190
0.86726	1.05126
0.86711	1.05027
0.86697	1.04997
0.86682	1.05087
0.86668	1.05238
0.86654	1.05343
0.86639	1.05270
0.86625	1.05036
0.8661	1.04963
0.86596	1.05120
0.86581	1.05184
0.86567	1.05147
0.86552	1.05186
0.86538	1.05202
0.86523	1.05132
0.86509	1.05066
0.86495	1.05020
0.8648	1.04966
0.86466	1.04903
0.86451	1.04888
0.86437	1.05012
0.86422	1.05202
0.86408	1.05254
0.86394	1.05101
0.86379	1.04880
0.86365	1.04830
0.8635	1.04963
0.86336	1.05010
0.86322	1.04980
0.86307	1.05115
0.86293	1.05304
0.86279	1.05283
0.86264	1.05117
0.8625	1.05018
0.86236	1.05071
0.86221	1.05222
0.86207	1.05367
0.86193	1.05431
0.86178	1.05412
0.86164	1.05409
0.8615	1.05399
0.86135	1.05245
0.86121	1.05029
0.86107	1.04897
0.86092	1.04835
0.86078	1.04783
0.86064	1.04739
0.8605	1.04768
0.86035	1.04937
0.86021	1.05186
0.86007	1.05297
0.85992	1.05183
0.85978	1.05017
0.85964	1.04964
0.8595	1.05060
0.85935	1.05188
0.85921	1.05205
0.85907	1.05145
0.85893	1.05062
0.85879	1.04931
0.85864	1.04760
0.8585	1.04679
0.85836	1.04814
0.85822	1.05087
0.85807	1.05236
0.85793	1.05107
0.85779	1.04920
0.85765	1.04927
0.85751	1.05097
0.85737	1.05263
0.85722	1.05212
0.85708	1.04947
0.85694	1.04744
0.8568	1.04776
0.85666	1.04931
0.85652	1.04967
0.85637	1.04843
0.85623	1.04802
0.85609	1.04984
0.85595	1.05131
0.85581	1.05059
0.85567	1.04974
0.85553	1.04992
0.85539	1.05043
0.85524	1.05065
0.8551	1.04948
0.85496	1.04760
0.85482	1.04792
0.85468	1.05004
0.85454	1.05105
0.8544	1.05186
0.85426	1.05333
0.85412	1.05337
0.85398	1.05212
0.85384	1.05101
0.8537	1.05007
0.85355	1.05001
0.85341	1.05088
0.85327	1.05072
0.85313	1.04995
0.85299	1.05040
0.85285	1.05090
0.85271	1.05135
0.85257	1.05269
0.85243	1.05308
0.85229	1.05212
0.85215	1.05139
0.85201	1.05074
0.85187	1.05001
0.85173	1.04957
0.85159	1.04932
0.85145	1.04949
0.85131	1.04967
0.85117	1.04911
0.85103	1.04831
0.85089	1.04795
0.85075	1.04828
0.85061	1.04952
0.85048	1.05077
0.85034	1.05090
0.8502	1.05066
0.85006	1.05094
0.84992	1.05080
0.84978	1.04999
0.84964	1.04970
0.8495	1.05094
0.84936	1.05357
0.84922	1.05534
0.84908	1.05478
0.84894	1.05331
0.8488	1.05194
0.84867	1.05039
0.84853	1.04907
0.84839	1.04847
0.84825	1.04847
0.84811	1.04907
0.84797	1.05037
0.84783	1.05179
0.84769	1.05187
0.84756	1.04959
0.84742	1.04672
0.84728	1.04587
0.84714	1.04598
0.847	1.04517
0.84686	1.04534
0.84673	1.04700
0.84659	1.04715
0.84645	1.04610
0.84631	1.04631
0.84617	1.04701
0.84603	1.04788
0.8459	1.04970
0.84576	1.05110
0.84562	1.05205
0.84548	1.05279
0.84535	1.05193
0.84521	1.05095
0.84507	1.05148
0.84493	1.05217
0.84479	1.05197
0.84466	1.05086
0.84452	1.04908
0.84438	1.04703
0.84424	1.04553
0.84411	1.04579
0.84397	1.04769
0.84383	1.04889
0.84369	1.04825
0.84356	1.04657
0.84342	1.04455
0.84328	1.04401
0.84315	1.04624
0.84301	1.04967
0.84287	1.05140
0.84273	1.05037
0.8426	1.04893
0.84246	1.04819
0.84232	1.04677
0.84219	1.04540
0.84205	1.04600
0.84191	1.04810
0.84178	1.04982
0.84164	1.04947
0.8415	1.04671
0.84137	1.04470
0.84123	1.04661
0.84109	1.05038
0.84096	1.05204
0.84082	1.05161
0.84069	1.05133
0.84055	1.05093
0.84041	1.04962
0.84028	1.04892
0.84014	1.04869
0.84	1.04749
0.83987	1.04660
0.83973	1.04726
0.8396	1.04837
0.83946	1.04867
0.83932	1.04779
0.83919	1.04668
0.83905	1.04658
0.83892	1.04680
0.83878	1.04602
0.83865	1.04512
0.83851	1.04606
0.83837	1.04881
0.83824	1.05231
0.8381	1.05523
0.83797	1.05478
0.83783	1.05127
0.8377	1.04909
0.83756	1.04909
0.83743	1.04873
0.83729	1.04843
0.83716	1.04891
0.83702	1.04818
0.83689	1.04608
0.83675	1.04596
0.83662	1.04870
0.83648	1.05040
0.83635	1.04914
0.83621	1.04739
0.83608	1.04638
0.83594	1.04689
0.83581	1.04979
0.83567	1.05164
0.83554	1.04977
0.8354	1.04797
0.83527	1.04887
0.83513	1.04981
0.835	1.04793
0.83486	1.04431
0.83473	1.04293
0.8346	1.04467
0.83446	1.04652
0.83433	1.04787
0.83419	1.04984
0.83406	1.05029
0.83393	1.04812
0.83379	1.04727
0.83366	1.04912
0.83352	1.05010
0.83339	1.04885
0.83326	1.04772
0.83312	1.04780
0.83299	1.04749
0.83285	1.04682
0.83272	1.04667
0.83259	1.04656
0.83245	1.04683
0.83232	1.04713
0.83219	1.04653
0.83205	1.04678
0.83192	1.04806
0.83178	1.04782
0.83165	1.04651
0.83152	1.04558
0.83138	1.04467
0.83125	1.04417
0.83112	1.04396
0.83098	1.04346
0.83085	1.04350
0.83072	1.04427
0.83059	1.04418
0.83045	1.04436
0.83032	1.04743
0.83019	1.04965
0.83005	1.04675
0.82992	1.04226
0.82979	1.04114
0.82966	1.04304
0.82952	1.04448
0.82939	1.04495
0.82926	1.04623
0.82912	1.04755
0.82899	1.04728
0.82886	1.04603
0.82873	1.04557
0.82859	1.04673
0.82846	1.04831
0.82833	1.04891
0.8282	1.04888
0.82807	1.04849
0.82793	1.04869
0.8278	1.04996
0.82767	1.05004
0.82754	1.04946
0.8274	1.04983
0.82727	1.04906
0.82714	1.04657
0.82701	1.04434
0.82688	1.04442
0.82675	1.04755
0.82661	1.05093
0.82648	1.05125
0.82635	1.04959
0.82622	1.04801
0.82609	1.04540
0.82596	1.04250
0.82582	1.04289
0.82569	1.04589
0.82556	1.04784
0.82543	1.04776
0.8253	1.04606
0.82517	1.04451
0.82504	1.04553
0.8249	1.04726
0.82477	1.04734
0.82464	1.04746
0.82451	1.04860
0.82438	1.04896
0.82425	1.04675
0.82412	1.04332
0.82399	1.04228
0.82386	1.04462
0.82372	1.04773
0.82359	1.04905
0.82346	1.04966
0.82333	1.05148
0.8232	1.05317
0.82307	1.05289
0.82294	1.05105
0.82281	1.04939
0.82268	1.04835
0.82255	1.04719
0.82242	1.04650
0.82229	1.04632
0.82216	1.04561
0.82203	1.04490
0.8219	1.04600
0.82177	1.04815
0.82164	1.04889
0.82151	1.04838
0.82138	1.04772
0.82125	1.04696
0.82112	1.04583
0.82099	1.04541
0.82086	1.04721
0.82073	1.04893
0.8206	1.04871
0.82047	1.04847
0.82034	1.04921
0.82021	1.05005
0.82008	1.04981
0.81995	1.04823
0.81982	1.04604
0.81969	1.04442
0.81956	1.04474
0.81943	1.04678
0.8193	1.04893
0.81917	1.04983
0.81904	1.04848
0.81891	1.04528
0.81878	1.04308
0.81865	1.04506
0.81852	1.04890
0.81839	1.04885
0.81827	1.04560
0.81814	1.04313
0.81801	1.04189
0.81788	1.04162
0.81775	1.04285
0.81762	1.04581
0.81749	1.04845
0.81736	1.04871
0.81723	1.04867
0.8171	1.04873
0.81698	1.04634
0.81685	1.04323
0.81672	1.04289
0.81659	1.04428
0.81646	1.04501
0.81633	1.04486
0.8162	1.04429
0.81608	1.04468
0.81595	1.04652
0.81582	1.04789
0.81569	1.04743
0.81556	1.04651
0.81543	1.04742
0.81531	1.04826
0.81518	1.04651
0.81505	1.04482
0.81492	1.04599
0.81479	1.04900
0.81467	1.05041
0.81454	1.04858
0.81441	1.04668
0.81428	1.04755
0.81415	1.04921
0.81403	1.04844
0.8139	1.04554
0.81377	1.04360
0.81364	1.04375
0.81352	1.04425
0.81339	1.04472
0.81326	1.04598
0.81313	1.04633
0.81301	1.04480
0.81288	1.04436
0.81275	1.04538
0.81262	1.04453
0.8125	1.04332
0.81237	1.04560
0.81224	1.04962
0.81211	1.05099
0.81199	1.04826
0.81186	1.04384
0.81173	1.04090
0.81161	1.03952
0.81148	1.03890
0.81135	1.03932
0.81122	1.04039
0.8111	1.04145
0.81097	1.04232
0.81084	1.04261
0.81072	1.04201
0.81059	1.04130
0.81046	1.04178
0.81034	1.04349
0.81021	1.04516
0.81008	1.04558
0.80996	1.04607
0.80983	1.04858
0.8097	1.05058
0.80958	1.04920
0.80945	1.04687
0.80933	1.04651
0.8092	1.04692
0.80907	1.04652
0.80895	1.04582
0.80882	1.04438
0.80869	1.04145
0.80857	1.03910
0.80844	1.03985
0.80832	1.04222
0.80819	1.04346
0.80806	1.04491
0.80794	1.04796
0.80781	1.04933
0.80769	1.04720
0.80756	1.04533
0.80743	1.04540
0.80731	1.04504
0.80718	1.04498
0.80706	1.04661
0.80693	1.04700
0.80681	1.04476
0.80668	1.04378
0.80656	1.04628
0.80643	1.04807
0.8063	1.04672
0.80618	1.04552
0.80605	1.04496
0.80593	1.04356
0.8058	1.04410
0.80568	1.04721
0.80555	1.04914
0.80543	1.04980
0.8053	1.05061
0.80518	1.04972
0.80505	1.04786
0.80493	1.04755
0.8048	1.04667
0.80468	1.04415
0.80455	1.04320
0.80443	1.04435
0.8043	1.04532
0.80418	1.04498
0.80405	1.04371
0.80393	1.04233
0.80381	1.04108
0.80368	1.04037
0.80356	1.04131
0.80343	1.04335
0.80331	1.04384
0.80318	1.04248
0.80306	1.04120
0.80293	1.04078
0.80281	1.04156
0.80269	1.04235
0.80256	1.04235
0.80244	1.04375
0.80231	1.04617
0.80219	1.04594
0.80206	1.04358
0.80194	1.04233
0.80182	1.04152
0.80169	1.04116
0.80157	1.04319
0.80144	1.04509
0.80132	1.04512
0.8012	1.04597
0.80107	1.04797
0.80095	1.04855
0.80083	1.04668
0.8007	1.04429
0.80058	1.04359
0.80045	1.04465
0.80033	1.04532
0.80021	1.04418
0.80008	1.04260
0.79996	1.04134
0.79984	1.04034
0.79971	1.04038
0.79959	1.04121
0.79947	1.04206
0.79934	1.04350
0.79922	1.04558
0.7991	1.04688
0.79897	1.04660
0.79885	1.04489
0.79873	1.04297
0.79861	1.04226
0.79848	1.04322
0.79836	1.04625
0.79824	1.04992
0.79811	1.05175
0.79799	1.05176
0.79787	1.05015
0.79775	1.04619
0.79762	1.04175
0.7975	1.03898
0.79738	1.03686
0.79725	1.03643
0.79713	1.03875
0.79701	1.04051
0.79689	1.04211
0.79676	1.04554
0.79664	1.04749
0.79652	1.04485
0.7964	1.04003
0.79628	1.03832
0.79615	1.04146
0.79603	1.04641
0.79591	1.04975
0.79579	1.04929
0.79566	1.04507
0.79554	1.04134
0.79542	1.04169
0.7953	1.04456
0.79518	1.04651
0.79505	1.04582
0.79493	1.04435
0.79481	1.04420
0.79469	1.04416
0.79457	1.04278
0.79445	1.04087
0.79432	1.04071
0.7942	1.04278
0.79408	1.04407
0.79396	1.04294
0.79384	1.04246
0.79372	1.04442
0.79359	1.04587
0.79347	1.04499
0.79335	1.04315
0.79323	1.04217
0.79311	1.04261
0.79299	1.04332
0.79287	1.04258
0.79275	1.04000
0.79262	1.03756
0.7925	1.03777
0.79238	1.04152
0.79226	1.04516
0.79214	1.04557
0.79202	1.04606
0.7919	1.04737
0.79178	1.04617
0.79166	1.04385
0.79154	1.04381
0.79141	1.04501
0.79129	1.04495
0.79117	1.04387
0.79105	1.04296
0.79093	1.04314
0.79081	1.04378
0.79069	1.04370
0.79057	1.04390
0.79045	1.04491
0.79033	1.04523
0.79021	1.04373
0.79009	1.04035
0.78997	1.03696
0.78985	1.03619
0.78973	1.03718
0.78961	1.03752
0.78949	1.03780
0.78937	1.03981
0.78925	1.04169
0.78913	1.04003
0.78901	1.03794
0.78889	1.04014
0.78877	1.04347
0.78865	1.04271
0.78853	1.03935
0.78841	1.03820
0.78829	1.03932
0.78817	1.04085
0.78805	1.04284
0.78793	1.04486
0.78781	1.04678
0.78769	1.04787
0.78757	1.04690
0.78745	1.04383
0.78733	1.04055
0.78721	1.04025
0.78709	1.04200
0.78697	1.04269
0.78685	1.04410
0.78673	1.04745
0.78661	1.04803
0.78649	1.04545
0.78637	1.04536
0.78625	1.04683
0.78613	1.04537
0.78602	1.04233
0.7859	1.04064
0.78578	1.04089
0.78566	1.04275
0.78554	1.04426
0.78542	1.04382
0.7853	1.04336
0.78518	1.04493
0.78506	1.04706
0.78494	1.04737
0.78483	1.04686
0.78471	1.04708
0.78459	1.04595
0.78447	1.04314
0.78435	1.04197
0.78423	1.04274
0.78411	1.04325
0.784	1.04353
0.78388	1.04394
0.78376	1.04339
0.78364	1.04207
0.78352	1.04096
0.7834	1.04044
0.78328	1.04023
0.78317	1.04041
0.78305	1.04280
0.78293	1.04638
0.78281	1.04718
0.78269	1.04438
0.78258	1.03948
0.78246	1.03616
0.78234	1.03771
0.78222	1.04067
0.7821	1.04154
0.78199	1.04205
0.78187	1.04268
0.78175	1.04271
0.78163	1.04335
0.78151	1.04461
0.7814	1.04368
0.78128	1.03985
0.78116	1.03716
0.78104	1.03796
0.78093	1.03882
0.78081	1.03708
0.78069	1.03519
0.78057	1.03439
0.78046	1.03247
0.78034	1.03016
0.78022	1.03026
0.7801	1.03268
0.77999	1.03600
0.77987	1.03929
0.77975	1.04044
0.77963	1.03818
0.77952	1.03653
0.7794	1.03733
0.77928	1.03629
0.77917	1.03467
0.77905	1.03671
0.77893	1.03976
0.77881	1.04043
0.7787	1.03847
0.77858	1.03514
0.77846	1.03363
0.77835	1.03614
0.77823	1.04094
0.77811	1.04405
0.778	1.04432
0.77788	1.04388
0.77776	1.04268
0.77765	1.04036
0.77753	1.03934
0.77741	1.04017
0.7773	1.04134
0.77718	1.04196
0.77706	1.04188
0.77695	1.04170
0.77683	1.04027
0.77671	1.03826
0.7766	1.03876
0.77648	1.03999
0.77637	1.03953
0.77625	1.03772
0.77613	1.03497
0.77602	1.03457
0.7759	1.03770
0.77578	1.03987
0.77567	1.04080
0.77555	1.04331
0.77544	1.04545
0.77532	1.04527
0.77521	1.04372
0.77509	1.04142
0.77497	1.03953
0.77486	1.03842
0.77474	1.03690
0.77463	1.03520
0.77451	1.03545
0.77439	1.03834
0.77428	1.04040
0.77416	1.03927
0.77405	1.03714
0.77393	1.03685
0.77382	1.03796
0.7737	1.03727
0.77359	1.03518
0.77347	1.03537
0.77336	1.03909
0.77324	1.04384
0.77312	1.04462
0.77301	1.04100
0.77289	1.03698
0.77278	1.03409
0.77266	1.03467
0.77255	1.03978
0.77243	1.04365
0.77232	1.04270
0.7722	1.04035
0.77209	1.03856
0.77197	1.03571
0.77186	1.03363
0.77174	1.03604
0.77163	1.03962
0.77151	1.04003
0.7714	1.04028
0.77128	1.04157
0.77117	1.03978
0.77106	1.03583
0.77094	1.03465
0.77083	1.03648
0.77071	1.03877
0.7706	1.03973
0.77048	1.03812
0.77037	1.03514
0.77025	1.03393
0.77014	1.03585
0.77002	1.03879
0.76991	1.03992
0.7698	1.03998
0.76968	1.04104
0.76957	1.04193
0.76945	1.04157
0.76934	1.04130
0.76923	1.04072
0.76911	1.03952
0.769	1.04006
0.76888	1.04272
0.76877	1.04440
0.76865	1.04401
0.76854	1.04367
0.76843	1.04300
0.76831	1.04039
0.7682	1.03770
0.76809	1.03762
0.76797	1.03978
0.76786	1.04048
0.76774	1.03840
0.76763	1.03647
0.76752	1.03601
0.7674	1.03560
0.76729	1.03565
0.76718	1.03713
0.76706	1.03784
0.76695	1.03653
0.76684	1.03524
0.76672	1.03494
0.76661	1.03441
0.7665	1.03307
0.76638	1.03182
0.76627	1.03077
0.76616	1.02914
0.76604	1.02814
0.76593	1.02934
0.76582	1.03030
0.7657	1.02811
0.76559	1.02552
0.76548	1.02604
0.76536	1.02860
0.76525	1.03154
0.76514	1.03477
0.76503	1.03747
0.76491	1.03737
0.7648	1.03399
0.76469	1.03148
0.76457	1.03245
0.76446	1.03479
0.76435	1.03725
0.76424	1.03975
0.76412	1.04244
0.76401	1.04446
0.7639	1.04423
0.76379	1.04388
0.76367	1.04491
0.76356	1.04568
0.76345	1.04539
0.76334	1.04321
0.76322	1.03996
0.76311	1.03758
0.763	1.03611
0.76289	1.03528
0.76278	1.03630
0.76266	1.03979
0.76255	1.04253
0.76244	1.04083
0.76233	1.03503
0.76221	1.02853
0.7621	1.02617
0.76199	1.02915
0.76188	1.03218
0.76177	1.03127
0.76165	1.02901
0.76154	1.02948
0.76143	1.03247
0.76132	1.03347
0.76121	1.02990
0.7611	1.02572
0.76098	1.02657
0.76087	1.03066
0.76076	1.03234
0.76065	1.03330
0.76054	1.03579
0.76043	1.03730
0.76031	1.03734
0.7602	1.03472
0.76009	1.02926
0.75998	1.02574
0.75987	1.02631
0.75976	1.03023
0.75965	1.03621
0.75954	1.03937
0.75942	1.03688
0.75931	1.03304
0.7592	1.03348
0.75909	1.03804
0.75898	1.04034
0.75887	1.03813
0.75876	1.03570
0.75865	1.03610
0.75854	1.03995
0.75842	1.04169
0.75831	1.03625
0.7582	1.02998
0.75809	1.02915
0.75798	1.03216
0.75787	1.03389
0.75776	1.03245
0.75765	1.03148
0.75754	1.03027
0.75743	1.02614
0.75732	1.02193
0.75721	1.02068
0.7571	1.02342
0.75698	1.02836
0.75687	1.03181
0.75676	1.03178
0.75665	1.02897
0.75654	1.02885
0.75643	1.03361
0.75632	1.03693
0.75621	1.03621
0.7561	1.03378
0.75599	1.02977
0.75588	1.02602
0.75577	1.02439
0.75566	1.02371
0.75555	1.02587
0.75544	1.03090
0.75533	1.03253
0.75522	1.02922
0.75511	1.02474
0.755	1.02222
0.75489	1.02269
0.75478	1.02399
0.75467	1.02780
0.75456	1.03435
0.75445	1.03456
0.75434	1.02893
0.75423	1.02693
0.75412	1.02841
0.75401	1.03011
0.7539	1.03038
0.75379	1.02843
0.75368	1.02951
0.75357	1.03339
0.75347	1.03200
0.75336	1.02755
0.75325	1.02759
0.75314	1.03133
0.75303	1.03353
0.75292	1.03105
0.75281	1.02554
0.7527	1.01995
0.75259	1.01714
0.75248	1.02010
0.75237	1.02432
0.75226	1.02368
0.75215	1.02151
0.75204	1.02143
0.75194	1.02147
0.75183	1.02127
0.75172	1.02196
0.75161	1.02155
0.7515	1.01966
0.75139	1.02027
0.75128	1.02305
0.75117	1.02403
0.75106	1.02518
0.75096	1.02855
0.75085	1.03050
0.75074	1.02864
0.75063	1.02467
0.75052	1.02170
0.75041	1.02097
0.7503	1.02193
0.75019	1.02476
0.75009	1.02773
0.74998	1.02786
0.74987	1.02535
0.74976	1.02303
0.74965	1.02455
0.74954	1.02913
0.74944	1.02970
0.74933	1.02526
0.74922	1.02178
0.74911	1.02024
0.749	1.02008
0.74889	1.02294
0.74879	1.02530
0.74868	1.02278
0.74857	1.01982
0.74846	1.02018
0.74835	1.02003
0.74825	1.02036
0.74814	1.02513
0.74803	1.02910
0.74792	1.02691
0.74781	1.02210
0.74771	1.02014
0.7476	1.02165
0.74749	1.02366
0.74738	1.02653
0.74728	1.03130
0.74717	1.03391
0.74706	1.03331
0.74695	1.03324
0.74685	1.03359
0.74674	1.03305
0.74663	1.03134
0.74652	1.02814
0.74642	1.02655
0.74631	1.02658
0.7462	1.02389
0.74609	1.02099
0.74599	1.02196
0.74588	1.02332
0.74577	1.02270
0.74566	1.02339
0.74556	1.02569
0.74545	1.02669
0.74534	1.02818
0.74524	1.03019
0.74513	1.02819
0.74502	1.02565
0.74491	1.02756
0.74481	1.02896
0.7447	1.02666
0.74459	1.02445
0.74449	1.02407
0.74438	1.02300
0.74427	1.01958
0.74417	1.01713
0.74406	1.01838
0.74395	1.02117
0.74385	1.02322
0.74374	1.02326
0.74363	1.02155
0.74353	1.02076
0.74342	1.02202
0.74331	1.02467
0.74321	1.02753
0.7431	1.02864
0.74299	1.02816
0.74289	1.02607
0.74278	1.02128
0.74267	1.01704
0.74257	1.01574
0.74246	1.01651
0.74235	1.02055
0.74225	1.02561
0.74214	1.02656
0.74204	1.02389
0.74193	1.01954
0.74182	1.01590
0.74172	1.01616
0.74161	1.01718
0.74151	1.01657
0.7414	1.01738
0.74129	1.01842
0.74119	1.01833
0.74108	1.01850
0.74098	1.01854
0.74087	1.01934
0.74076	1.02176
0.74066	1.02456
0.74055	1.02497
0.74045	1.02135
0.74034	1.01835
0.74024	1.01997
0.74013	1.02220
0.74002	1.02167
0.73992	1.02108
0.73981	1.02174
0.73971	1.02221
0.7396	1.02242
0.7395	1.02168
0.73939	1.02112
0.73929	1.02344
0.73918	1.02681
0.73907	1.02661
0.73897	1.01952
0.73886	1.00989
0.73876	1.00700
0.73865	1.01143
0.73855	1.01754
0.73844	1.02302
0.73834	1.02633
0.73823	1.02609
0.73813	1.02557
0.73802	1.02734
0.73792	1.02782
0.73781	1.02448
0.73771	1.02133
0.7376	1.02196
0.7375	1.02252
0.73739	1.01914
0.73729	1.01533
0.73718	1.01392
0.73708	1.01377
0.73697	1.01548
0.73687	1.01875
0.73676	1.01961
0.73666	1.01561
0.73655	1.01084
0.73645	1.01230
0.73635	1.01856
0.73624	1.01959
0.73614	1.01311
0.73603	1.00816
0.73593	1.01069
0.73582	1.01652
0.73572	1.02025
0.73561	1.02108
0.73551	1.02021
0.73541	1.01948
0.7353	1.01709
0.7352	1.01151
0.73509	1.00853
0.73499	1.01299
0.73488	1.02120
0.73478	1.02457
0.73468	1.02041
0.73457	1.01546
0.73447	1.01360
0.73436	1.01168
0.73426	1.00920
0.73416	1.01090
0.73405	1.01435
0.73395	1.01209
0.73384	1.00721
0.73374	1.00601
0.73364	1.00793
0.73353	1.00998
0.73343	1.01100
0.73333	1.01290
0.73322	1.01680
0.73312	1.01874
0.73301	1.01727
0.73291	1.01713
0.73281	1.01679
0.7327	1.01341
0.7326	1.01333
0.7325	1.01557
0.73239	1.01325
0.73229	1.00968
0.73219	1.01006
0.73208	1.01450
0.73198	1.01912
0.73188	1.01985
0.73177	1.01948
0.73167	1.02053
0.73157	1.01993
0.73146	1.01769
0.73136	1.01491
0.73126	1.01043
0.73115	1.00793
0.73105	1.01141
0.73095	1.01629
0.73085	1.01766
0.73074	1.01815
0.73064	1.01752
0.73054	1.01186
0.73043	1.00834
0.73033	1.01600
0.73023	1.02688
0.73012	1.02872
0.73002	1.02339
0.72992	1.01948
0.72982	1.01900
0.72971	1.01756
0.72961	1.01450
0.72951	1.01297
0.72941	1.01167
0.7293	1.00960
0.7292	1.00923
0.7291	1.01002
0.729	1.01075
0.72889	1.01200
0.72879	1.01144
0.72869	1.00846
0.72859	1.00798
0.72848	1.00979
0.72838	1.00893
0.72828	1.00546
0.72818	1.00332
0.72807	1.00452
0.72797	1.00856
0.72787	1.01483
0.72777	1.02086
0.72767	1.02239
0.72756	1.01886
0.72746	1.01451
0.72736	1.01337
0.72726	1.01484
0.72716	1.01477
0.72705	1.00971
0.72695	1.00350
0.72685	1.00539
0.72675	1.01372
0.72665	1.01706
0.72654	1.01355
0.72644	1.00998
0.72634	1.01145
0.72624	1.01749
0.72614	1.01950
0.72604	1.01332
0.72593	1.00730
0.72583	1.00589
0.72573	1.00644
0.72563	1.00916
0.72553	1.01454
0.72543	1.01734
0.72532	1.01405
0.72522	1.01303
0.72512	1.01863
0.72502	1.02190
0.72492	1.02078
0.72482	1.02036
0.72472	1.01925
0.72462	1.01450
0.72451	1.00814
0.72441	1.00703
0.72431	1.01233
0.72421	1.01452
0.72411	1.01352
0.72401	1.01905
0.72391	1.02452
0.72381	1.01736
0.7237	1.00677
0.7236	1.00667
0.7235	1.01233
0.7234	1.01450
0.7233	1.01440
0.7232	1.01425
0.7231	1.01344
0.723	1.01446
0.7229	1.01714
0.7228	1.01812
0.7227	1.01850
0.7226	1.02157
0.72249	1.02758
0.72239	1.03020
0.72229	1.02455
0.72219	1.01633
0.72209	1.01256
0.72199	1.01506
0.72189	1.01878
0.72179	1.01836
0.72169	1.01967
0.72159	1.02597
0.72149	1.02962
0.72139	1.02678
0.72129	1.01914
0.72119	1.01219
0.72109	1.01329
0.72099	1.02073
0.72089	1.02633
0.72079	1.02472
0.72069	1.01577
0.72059	1.00653
0.72049	1.00549
0.72039	1.01056
0.72029	1.01156
0.72019	1.00847
0.72009	1.01071
0.71999	1.01710
0.71989	1.01954
0.71979	1.01928
0.71969	1.01962
0.71959	1.01824
0.71949	1.01662
0.71939	1.01660
0.71929	1.01516
0.71919	1.01445
0.71909	1.01634
0.71899	1.01700
0.71889	1.01610
0.71879	1.01356
0.71869	1.00937
0.71859	1.00906
0.71849	1.01128
0.71839	1.00962
0.71829	1.01040
0.71819	1.01974
0.71809	1.02699
0.71799	1.02151
0.71789	1.01083
0.71779	1.00721
0.71769	1.00880
0.7176	1.01135
0.7175	1.01533
0.7174	1.01676
0.7173	1.01543
0.7172	1.01584
0.7171	1.01595
0.717	1.01595
0.7169	1.01804
0.7168	1.01532
0.7167	1.00838
0.7166	1.00743
0.7165	1.00995
0.71641	1.01052
0.71631	1.01046
0.71621	1.00952
0.71611	1.00761
0.71601	1.00408
0.71591	1.00152
0.71581	1.00381
0.71571	1.00504
0.71561	1.00313
0.71552	1.00412
0.71542	1.00467
0.71532	1.00137
0.71522	1.00104
0.71512	1.00780
0.71502	1.01739
0.71492	1.02033
0.71483	1.01456
0.71473	1.01034
0.71463	1.01099
0.71453	1.00993
0.71443	1.00749
0.71433	1.00694
0.71424	1.00559
0.71414	1.00511
0.71404	1.01083
0.71394	1.02058
0.71384	1.02692
0.71374	1.02267
0.71365	1.01250
0.71355	1.01113
0.71345	1.01923
0.71335	1.02586
0.71325	1.02813
0.71315	1.02756
0.71306	1.02130
0.71296	1.01229
0.71286	1.01056
0.71276	1.01421
0.71266	1.01369
0.71257	1.01225
0.71247	1.01489
0.71237	1.01618
0.71227	1.01536
0.71218	1.01614
0.71208	1.01741
0.71198	1.01925
0.71188	1.02139
0.71178	1.02280
0.71169	1.02481
0.71159	1.02470
0.71149	1.02102
0.71139	1.01787
0.7113	1.01658
0.7112	1.01604
0.7111	1.01528
0.711	1.01477
0.71091	1.01783
0.71081	1.02159
0.71071	1.01808
0.71061	1.00968
0.71052	1.00629
0.71042	1.00838
0.71032	1.00945
0.71022	1.01088
0.71013	1.01490
0.71003	1.01481
0.70993	1.01022
0.70984	1.01136
0.70974	1.02002
0.70964	1.02509
0.70954	1.02084
0.70945	1.01393
0.70935	1.01285
0.70925	1.01828
0.70916	1.01927
0.70906	1.01137
0.70896	1.00785
0.70886	1.01300
0.70877	1.01371
0.70867	1.00722
0.70857	1.00594
0.70848	1.00958
0.70838	1.00674
0.70828	1.00006
0.70819	0.99760
0.70809	1.00087
0.70799	1.00804
0.7079	1.01163
0.7078	1.01138
0.7077	1.01729
0.70761	1.02596
0.70751	1.02520
0.70741	1.01926
0.70732	1.01922
0.70722	1.02201
0.70712	1.02190
0.70703	1.02194
0.70693	1.02135
0.70684	1.01850
0.70674	1.01662
0.70664	1.01228
0.70655	1.00449
0.70645	1.00185
0.70635	1.00940
0.70626	1.02165
0.70616	1.02260
0.70607	1.01001
0.70597	0.99961
0.70587	0.99674
0.70578	1.00155
0.70568	1.00742
0.70559	1.00366
0.70549	1.00080
0.70539	1.00690
0.7053	1.01084
0.7052	1.00642
0.70511	1.00208
0.70501	1.01223
0.70491	1.03232
0.70482	1.03952
0.70472	1.03016
0.70463	1.02168
0.70453	1.02272
0.70444	1.02609
0.70434	1.02423
0.70424	1.01400
0.70415	0.99777
0.70405	0.99077
0.70396	1.00041
0.70386	1.01378
0.70377	1.02172
0.70367	1.02518
0.70357	1.02327
0.70348	1.01759
0.70338	1.01437
0.70329	1.01571
0.70319	1.01700
0.7031	1.01597
0.703	1.01432
0.70291	1.01281
0.70281	1.01310
0.70272	1.01981
0.70262	1.03420
0.70253	1.04227
0.70243	1.03267
0.70234	1.01973
0.70224	1.01646
0.70215	1.01880
0.70205	1.01602
0.70196	1.00584
0.70186	0.99940
0.70177	1.00459
0.70167	1.01454
0.70158	1.01720
0.70148	1.01152
0.70139	1.00751
0.70129	1.00921
0.7012	1.01025
0.7011	1.00725
0.70101	1.00393
0.70091	1.00397
0.70082	1.01019
0.70072	1.01741
0.70063	1.01949
0.70053	1.02598
0.70044	1.03629
0.70034	1.03366
0.70025	1.02196
0.70015	1.01736
0.70006	1.02104
0.69997	1.02789
0.69987	1.03248
0.69978	1.02798
0.69968	1.02257
0.69959	1.02711
0.69949	1.03186
0.6994	1.02982
0.6993	1.02766
0.69921	1.02718
0.69912	1.02464
0.69902	1.01824
0.69893	1.01450
0.69883	1.02148
0.69874	1.03060
0.69865	1.03141
0.69855	1.03202
0.69846	1.04201
0.69836	1.05667
0.69827	1.05889
0.69818	1.04288
0.69808	1.02944
0.69799	1.03063
0.69789	1.03513
0.6978	1.03278
0.69771	1.02902
0.69761	1.03332
0.69752	1.04114
0.69742	1.03949
0.69733	1.02969
0.69724	1.01991
0.69714	1.01346
0.69705	1.01614
0.69696	1.02829
0.69686	1.03844
0.69677	1.03855
0.69667	1.03377
0.69658	1.03373
0.69649	1.03958
0.69639	1.04555
0.6963	1.04694
0.69621	1.04443
0.69611	1.04025
0.69602	1.03259
0.69593	1.02665
0.69583	1.02901
0.69574	1.03177
0.69565	1.02867
0.69555	1.02588
0.69546	1.02830
0.69537	1.03251
0.69527	1.02983
0.69518	1.02292
0.69509	1.02550
0.69499	1.03345
0.6949	1.03257
0.69481	1.02559
0.69471	1.02426
0.69462	1.03301
0.69453	1.04426
0.69444	1.05158
0.69434	1.05737
0.69425	1.06326
0.69416	1.06870
0.69406	1.06847
0.69397	1.05893
0.69388	1.04901
0.69378	1.04535
0.69369	1.04302
0.6936	1.04181
0.69351	1.04405
0.69341	1.04177
0.69332	1.03458
0.69323	1.03345
0.69314	1.04023
0.69304	1.04316
0.69295	1.03367
0.69286	1.02374
0.69277	1.02742
0.69267	1.04363
0.69258	1.06075
0.69249	1.06549
0.6924	1.06044
0.6923	1.05165
0.69221	1.04326
0.69212	1.04496
0.69203	1.05156
0.69193	1.04819
0.69184	1.03798
0.69175	1.03462
0.69166	1.04541
0.69156	1.06636
0.69147	1.08657
0.69138	1.09484
0.69129	1.08597
0.6912	1.07214
0.6911	1.06344
0.69101	1.05563
0.69092	1.05467
0.69083	1.06284
0.69073	1.06642
0.69064	1.06643
0.69055	1.07366
0.69046	1.08443
0.69037	1.08182
0.69028	1.06455
0.69018	1.05511
0.69009	1.05990
0.69	1.06635
0.68991	1.06788
0.68982	1.06847
0.68972	1.07159
0.68963	1.07239
0.68954	1.06881
0.68945	1.06555
0.68936	1.06298
0.68927	1.05929
0.68917	1.05375
0.68908	1.04780
0.68899	1.04551
0.6889	1.04531
0.68881	1.04422
0.68872	1.04765
0.68863	1.05812
0.68853	1.07021
0.68844	1.07605
0.68835	1.07047
0.68826	1.05765
0.68817	1.04445
0.68808	1.03419
0.68799	1.02817
0.68789	1.02582
0.6878	1.03271
0.68771	1.05094
0.68762	1.06198
0.68753	1.05457
0.68744	1.04447
0.68735	1.03993
0.68726	1.04105
0.68716	1.05214
0.68707	1.06376
0.68698	1.06521
0.68689	1.06191
0.6868	1.06023
0.68671	1.06059
0.68662	1.06411
0.68653	1.06806
0.68644	1.06143
0.68635	1.04924
0.68626	1.05477
0.68616	1.07572
0.68607	1.08357
0.68598	1.07496
0.68589	1.07017
0.6858	1.07094
0.68571	1.06997
0.68562	1.06888
0.68553	1.06752
0.68544	1.06438
0.68535	1.06676
0.68526	1.07756
0.68517	1.08575
0.68508	1.08450
0.68499	1.07723
0.6849	1.06582
0.68481	1.05300
0.68471	1.04273
0.68462	1.03834
0.68453	1.04161
0.68444	1.04813
0.68435	1.05211
0.68426	1.05503
0.68417	1.05792
0.68408	1.05808
0.68399	1.06373
0.6839	1.08156
0.68381	1.09213
0.68372	1.07896
0.68363	1.05862
0.68354	1.05199
0.68345	1.05493
0.68336	1.05231
0.68327	1.04724
0.68318	1.05361
0.68309	1.06619
0.683	1.07091
0.68291	1.07154
0.68282	1.07340
0.68273	1.07194
0.68264	1.06800
0.68255	1.06730
0.68246	1.07282
0.68237	1.08066
0.68228	1.08271
0.68219	1.07997
0.6821	1.07795
0.68201	1.07731
0.68192	1.08034
0.68183	1.08779
0.68174	1.08714
0.68165	1.06984
0.68156	1.04759
0.68148	1.04176
0.68139	1.06196
0.6813	1.08837
0.68121	1.09678
0.68112	1.09212
0.68103	1.08508
0.68094	1.07307
0.68085	1.06091
0.68076	1.06232
0.68067	1.07237
0.68058	1.07542
0.68049	1.07091
0.6804	1.06336
0.68031	1.05774
0.68022	1.05989
0.68013	1.06270
0.68005	1.06521
0.67996	1.06979
0.67987	1.06057
0.67978	1.04291
0.67969	1.04463
0.6796	1.06045
0.67951	1.06847
0.67942	1.06669
0.67933	1.06022
0.67924	1.05268
0.67915	1.05326
0.67907	1.06260
0.67898	1.07268
0.67889	1.07512
0.6788	1.07322
0.67871	1.08321
0.67862	1.09392
0.67853	1.08595
0.67844	1.07899
0.67836	1.08513
0.67827	1.08918
0.67818	1.08744
0.67809	1.09321
0.678	1.10505
0.67791	1.10605
0.67782	1.09888
0.67773	1.09660
0.67765	1.09590
0.67756	1.09256
0.67747	1.09492
0.67738	1.10398
0.67729	1.10825
0.6772	1.10340
0.67711	1.09663
0.67703	1.09345
0.67694	1.09153
0.67685	1.08921
0.67676	1.08687
0.67667	1.08178
0.67658	1.07081
0.6765	1.06011
0.67641	1.06080
0.67632	1.07069
0.67623	1.07989
0.67614	1.08421
0.67606	1.08479
0.67597	1.08504
0.67588	1.08194
0.67579	1.07344
0.6757	1.06664
0.67562	1.06464
0.67553	1.06121
0.67544	1.05463
0.67535	1.05163
0.67526	1.05576
0.67518	1.06739
0.67509	1.07768
0.675	1.07808
0.67491	1.07936
0.67482	1.07857
0.67474	1.06261
0.67465	1.04516
0.67456	1.04048
0.67447	1.04633
0.67439	1.05380
0.6743	1.05082
0.67421	1.04222
0.67412	1.04533
0.67403	1.05535
0.67395	1.05593
0.67386	1.05043
0.67377	1.04621
0.67368	1.04200
0.6736	1.04406
0.67351	1.05737
0.67342	1.06998
0.67333	1.06945
0.67325	1.06154
0.67316	1.06031
0.67307	1.06681
0.67298	1.07012
0.6729	1.06816
0.67281	1.06945
0.67272	1.07484
0.67264	1.07254
0.67255	1.05828
0.67246	1.04559
0.67237	1.03932
0.67229	1.03703
0.6722	1.04687
0.67211	1.06378
0.67203	1.06979
0.67194	1.06531
0.67185	1.06211
0.67176	1.05982
0.67168	1.05427
0.67159	1.05378
0.6715	1.06012
0.67142	1.06090
0.67133	1.05556
0.67124	1.05233
0.67116	1.05399
0.67107	1.06421
0.67098	1.07814
0.67089	1.07496
0.67081	1.05562
0.67072	1.05108
0.67063	1.06361
0.67055	1.06390
0.67046	1.04960
0.67037	1.04344
0.67029	1.05129
0.6702	1.05820
0.67011	1.05700
0.67003	1.05991
0.66994	1.07213
0.66985	1.08227
0.66977	1.08326
0.66968	1.08044
0.6696	1.07088
0.66951	1.05406
0.66942	1.05062
0.66934	1.05681
0.66925	1.04908
0.66916	1.03891
0.66908	1.04439
0.66899	1.05311
0.6689	1.05184
0.66882	1.05155
0.66873	1.05968
0.66865	1.07024
0.66856	1.08095
0.66847	1.08545
0.66839	1.08056
0.6683	1.07215
0.66821	1.06299
0.66813	1.06040
0.66804	1.06736
0.66796	1.06838
0.66787	1.05585
0.66778	1.04662
0.6677	1.05079
0.66761	1.05790
0.66753	1.06297
0.66744	1.06784
0.66735	1.06125
0.66727	1.04805
0.66718	1.05460
0.6671	1.07535
0.66701	1.08764
0.66693	1.08731
0.66684	1.07703
0.66675	1.06776
